Index,Time,Difference,Hz,AveHz,0x6829 Range,0x6829 Smoothed Range,0x6829 Velocity,
0,0.0010001659393310547,0.0010001659393310547,999.8340882002384,0.0,34,29.5,39.99336352800954,
1,0.01400136947631836,0.013001203536987305,76.91595606168968,71.42158498790995,24,28.950000000000003,33.40959237905445,
2,0.027002573013305664,0.013001203536987305,76.91595606168968,74.06701572529734,48,30.855000000000004,42.45881669253161,
3,0.04000401496887207,0.013001441955566406,76.91454558791169,74.99247268891286,43,32.069500000000005,46.53512860645059,
4,0.053005218505859375,0.013001203536987305,76.91595606168968,75.46426772220224,34,32.262550000000005,44.00020834335128,
5,0.06800699234008789,0.015001773834228516,66.65878389116685,73.52185162072907,57,34.736295000000005,53.67193834443155,
6,0.0810081958770752,0.013001203536987305,76.91595606168968,74.06657974588917,57,36.96266550000001,63.07765652128041,
7,0.0940093994140625,0.013001203536987305,76.91595606168968,74.46063950657361,67,39.96639895000001,76.51424640447622,
8,0.1070108413696289,0.013001441955566406,76.91454558791169,74.75878048997852,81,44.06975905500001,95.64175292088937,
9,0.12101221084594727,0.01400136947631836,71.42158498790995,74.37265989179647,104,50.062783149500014,122.23291506321215,
10,0.13301324844360352,0.01200103759765625,83.32612841703751,75.180481019828,76,52.65650483455001,129.7442647546777,
11,0.14601469039916992,0.013001441955566406,76.91454558791169,75.33488561958102,109,58.290854351095014,154.03379819418578,
12,0.15801572799682617,0.01200103759765625,83.32612841703751,75.9418075157748,67,59.16176891598552,147.5166894485977,
13,0.17101716995239258,0.013001441955566406,76.91454558791169,76.01575914055246,123,65.54559202438696,174.99606257241444,
14,0.18501853942871094,0.01400136947631836,71.42158498790995,75.66809273939981,100,68.99103282194827,180.68268498612827,
15,0.1970195770263672,0.01200103759765625,83.32612841703751,76.13456604869549,109,72.99192953975344,192.89840888252905,
16,0.21102094650268555,0.01400136947631836,71.42158498790995,75.82185685910747,95,75.1927365857781,190.04134637029807,
17,0.22402238845825195,0.013001441955566406,76.91454558791169,75.8852725256434,118,79.4734629272003,201.1780483676096,
18,0.2360234260559082,0.01200103759765625,83.32612841703751,76.26361628924172,104,81.92611663448028,201.4334155202276,
19,0.2490251064300537,0.013001680374145508,76.91313516586287,76.2975278773216,85,82.23350497103226,187.21011833282,
20,0.26302623748779297,0.014001131057739258,71.4228011919966,76.03804164566738,109,84.91015447392904,187.52721329067867,
21,0.2750275135040283,0.012001276016235352,83.324473051632,76.35599701443111,137,90.11913902653615,207.24790766583064,
22,0.2880287170410156,0.013001203536987305,76.91595606168968,76.38127276339316,114,92.50722512388253,205.36262907936634,
23,0.30103015899658203,0.013001441955566406,76.91454558791169,76.4043047270262,151,98.35650261149428,224.92518035119775,
24,0.31403136253356934,0.013001203536987305,76.91595606168968,76.42548758942651,109,99.42085235034486,213.4804041429181,
25,0.32703256607055664,0.013001203536987305,76.91595606168968,76.44498619934474,231,112.57876711531037,277.3662593255283,
26,0.34003400802612305,0.013001441955566406,76.91454558791169,76.46294013627765,175,118.82089040377933,293.58576467839094,
27,0.3540353775024414,0.01400136947631836,71.42158498790995,76.2635649309194,118,118.7388013634014,269.6298691542054,
28,0.3670365810394287,0.013001203536987305,76.91595606168968,76.2866739895665,184,125.26492122706127,288.21649951679564,
29,0.37903785705566406,0.012001276016235352,83.324473051632,76.50950811422821,137,126.43842910435514,272.9817335952481,
30,0.3930392265319824,0.01400136947631836,71.42158498790995,76.32825930558572,146,128.39458619391962,262.32014209339087,
31,0.40504026412963867,0.01200103759765625,83.32612841703751,76.53560089047845,104,125.95512757452767,225.07287935091938,
32,0.4180417060852051,0.013001441955566406,76.91454558791169,76.54738638320879,95,122.8596148170749,188.0198524347608,
33,0.4310431480407715,0.013001441955566406,76.91454558791169,76.55846091045761,81,118.6736533353674,147.22135822285728,
34,0.44304442405700684,0.012001276016235352,83.324473051632,76.74174000128076,109,117.70628800183067,128.99523303179953,
35,0.4570457935333252,0.01400136947631836,71.42158498790995,76.57875971119292,123,118.23565920164761,121.70029680028574,
36,0.46904683113098145,0.01200103759765625,83.32612841703751,76.75139796424078,184,124.81209328148286,155.80337630926562,
37,0.48204827308654785,0.013001441955566406,76.91454558791169,76.75579825872947,128,125.13088395333457,145.30067737757554,
38,0.49504947662353516,0.013001203536987305,76.91595606168968,76.76000439224268,114,124.01779555800113,126.82748253870996,
39,0.5080506801605225,0.013001203536987305,76.91595606168968,76.76399525275245,109,122.51601600220103,107.44041910935204,
40,0.5210521221160889,0.013001441955566406,76.91454558791169,76.76775182788359,123,122.56441440198093,99.14298885470411,
41,0.5340533256530762,0.013001203536987305,76.91595606168968,76.7713597698553,132,123.50797296178284,97.01752644451621,
42,0.5470545291900635,0.013001203536987305,76.91595606168968,76.77479622037443,123,123.45717566560455,88.94355452088276,
43,0.5600559711456299,0.013001441955566406,76.91454558791169,76.77804043770979,109,122.0114580990441,72.93233338477549,
44,0.5730571746826172,0.013001203536987305,76.91595606168968,76.78116939094083,128,122.6103122891397,70.78266211981358,
45,0.5860583782196045,0.013001203536987305,76.91595606168968,76.7841595178729,137,124.04928106022574,73.97442185190829,
46,0.5990598201751709,0.013001441955566406,76.91454558791169,76.78698929691053,151,126.74435295420318,84.63968650791783,
47,0.6120612621307373,0.013001441955566406,76.91454558791169,76.78969885527688,85,122.56991765878287,52.18252808061297,
48,0.6250624656677246,0.013001203536987305,76.91595606168968,76.79232498582982,43,114.61292589290458,-0.9536444896377247,
49,0.638063907623291,0.013001441955566406,76.91454558791169,76.7948154010449,76,110.75163330361413,-24.636518121446418,
50,0.6510651111602783,0.013001203536987305,76.91595606168968,76.79723447458862,137,113.37646997325272,-6.514250915647967,
51,0.6640663146972656,0.013001203536987305,76.91595606168968,76.79955882606373,71,109.13882297592745,-32.068524462493876,
52,0.677067756652832,0.013001441955566406,76.91454558791169,76.80176686757085,85,106.7249406783347,-44.35605530725841,
53,0.6900689601898193,0.013001203536987305,76.91595606168968,76.80391824234658,24,98.45244661050124,-91.71051410204312,
54,0.7030701637268066,0.013001203536987305,76.91595606168968,76.80599005049358,15,90.10720194945112,-135.72427070775018,
55,0.716071605682373,0.013001441955566406,76.91454558791169,76.8079610524262,0,81.09648175450602,-180.31076498825192,
56,0.7290728092193604,0.013001203536987305,76.91595606168968,76.80988687530515,0,72.98683357905541,-215.78681120828938,
57,0.7420740127563477,0.013001203536987305,76.91595606168968,76.81174521700352,0,65.68815022114987,-243.43468298881413,
58,0.7550754547119141,0.013001441955566406,76.91454558791169,76.81351530904801,0,59.119335199034886,-264.3789021478708,
59,0.7690770626068115,0.014001607894897461,71.42036882524222,76.7153291505244,0,53.2074016791314,-277.0071877729867,
60,0.7810781002044678,0.01200103759765625,83.32612841703751,76.81690215651088,0,47.886661511218264,-290.31514703156535,
61,0.7940795421600342,0.013001441955566406,76.91454558791169,76.81850086966026,0,43.09799536009644,-296.55538174790007,
62,0.8070807456970215,0.013001203536987305,76.91595606168968,76.82007076808004,1,38.8881958240868,-298.7350116992872,
63,0.8200819492340088,0.013001203536987305,76.91595606168968,76.8215908895991,0,34.99937624167812,-298.765192853935,
64,0.8330833911895752,0.013001441955566406,76.91454558791169,76.82304157884268,0,31.49943861751031,-296.39966638153237,
65,0.8460845947265625,0.013001203536987305,76.91595606168968,76.82446933217912,0,28.34949475575928,-292.07016856438827,
66,0.8590857982635498,0.013001203536987305,76.91595606168968,76.82585387094545,6,26.114545280183354,-282.45681713231676,
67,0.8740873336791992,0.015001535415649414,66.6598432955611,76.65137958009791,0,23.50309075216502,-273.7866037306263,
68,0.8900890350341797,0.01600170135498047,62.493354788724,76.396851689549,0,21.152781676948518,-263.6339713442292,
69,0.902090311050415,0.012001276016235352,83.324473051632,76.4890157390725,0,19.037503509253668,-256.64360873115453,
70,0.9170916080474854,0.015001296997070312,66.66090273363001,76.3282526911701,0,17.1337531583283,-246.26457739043417,
71,0.9330933094024658,0.01600170135498047,62.493354788724,76.09099677873263,6,16.02037784249547,-232.12969588922732,
72,0.9460945129394531,0.013001203536987305,76.91595606168968,76.10233334542947,0,14.418340058245924,-223.41710164388954,
73,0.9600958824157715,0.01400136947631836,71.42158498790995,76.03407257233418,0,12.976506052421332,-213.78197911121518,
74,0.9720971584320068,0.012001276016235352,83.324473051632,76.12407809046786,0,11.678855447179199,-205.32950501327255,
75,0.9850983619689941,0.013001203536987305,76.91595606168968,76.13452919573591,0,10.51096990246128,-196.08946727161924,
76,1.0001001358032227,0.015001773834228516,66.65878389116685,75.99239044094439,,10.51096990246128,-196.08946727161924,
77,1.0061004161834717,0.0060002803802490234,166.65887869034847,76.53311613972967,0,9.459872912215152,-194.41628155302732,
78,1.014101505279541,0.008001089096069336,124.98298519026193,76.91537739952274,0,8.513885620993637,-188.3215642774983,
79,1.0231022834777832,0.009000778198242188,111.10150455605002,77.21613105139306,43,11.962497058894273,-142.60416558490135,
80,1.0321030616760254,0.009000778198242188,111.10150455605002,77.51163907031584,43,15.066247353004847,-103.60932614275185,
81,1.0401039123535156,0.008000850677490234,124.986709577448,77.87683426429544,34,16.959622617704362,-76.38884050492194,
82,1.0481047630310059,0.008000850677490234,124.986709577448,78.23645392361814,0,15.263660355933926,-87.23555267782527,
83,1.057105541229248,0.009000778198242188,111.10150455605002,78.51628504707676,48,18.537294320340536,-51.16025575869037,
84,1.0651063919067383,0.008000850677490234,124.986709577448,78.86536090504949,29,19.583564888306483,-36.605842048571816,
85,1.0791077613830566,0.01400136947631836,71.42158498790995,78.76877828314228,29,20.525208399475837,-28.297080919782402,
86,1.088108777999878,0.009001016616821289,111.09856170370567,79.03621562366409,48,23.272687559528254,-1.6140358067814944,
87,1.1031103134155273,0.015001535415649414,66.6598432955611,78.86790554121873,48,25.74541880357543,11.701637236978828,
88,1.1111111640930176,0.008000850677490234,124.986709577448,79.19999622344989,95,32.67087692321789,80.01272407326303,
89,1.1191120147705078,0.008000850677490234,124.986709577448,79.52733848385222,81,37.5037892308961,121.93569070844606,
90,1.12811279296875,0.009000778198242188,111.10150455605002,79.77925661418601,57,39.4534103078065,129.50930224848491,
91,1.1391139030456543,0.011001110076904297,90.89991764552902,79.88665554576488,57,41.20806927702586,131.9084265324484,
92,1.1481146812438965,0.009000778198242188,111.10150455605002,80.13136797477833,1,37.18726234932328,85.61833647408089,
93,1.1571156978607178,0.009001016616821289,111.09856170370567,80.37225678636885,57,39.16853611439095,96.37820280737878,
94,1.16611647605896,0.009000778198242188,111.10150455605002,80.6094433359565,48,40.05168250295186,96.5174579837772,
95,1.1751174926757812,0.009001016616821289,111.09856170370567,80.84298003570849,100,46.04651425265668,142.07743614890816,
96,1.1841182708740234,0.009000778198242188,111.10150455605002,81.0729826245653,85,49.94186282739101,165.33356825085548,
97,1.1931192874908447,0.009001016616821289,111.09856170370567,81.2994987315921,109,55.84767654465191,204.59707556500314,
98,1.202120065689087,0.009000778198242188,111.10150455605002,81.52263887536377,123,62.56290889018672,247.9151028823925,
99,1.2101209163665771,0.008000850677490234,124.986709577448,81.8100064721221,156,71.90661800116806,321.5090512142314,
100,1.2191219329833984,0.009001016616821289,111.09856170370567,82.02624962646928,118,76.51595620105125,336.7555946701306,
101,1.2281229496002197,0.009001016616821289,111.09856170370567,82.23932305220553,165,85.36436058094613,388.4587470948474,
102,1.2371234893798828,0.009000539779663086,111.10444756430293,82.44932771515658,231,99.92792452285153,486.82818543388373,
103,1.246124505996704,0.009001016616821289,111.09856170370567,82.656267093966,123,102.23513207056638,468.3881258074174,
104,1.2551255226135254,0.009001016616821289,111.09856170370567,82.86023837953886,146,106.61161886350973,469.8147867837256,
105,1.2641265392303467,0.009001016616821289,111.09856170370567,83.0613049734154,132,109.15045697715877,454.7945048670241,
106,1.2731273174285889,0.009000778198242188,111.10150455605002,83.25954407615298,160,114.2354112794429,463.60663036426433,
107,1.281128168106079,0.008000850677490234,124.986709577448,83.52013691040806,160,118.81187015149861,472.2778228099042,
108,1.2901289463043213,0.009000778198242188,111.10150455605002,83.7125624608104,189,125.83068313634875,496.8796516102632,
109,1.2991297245025635,0.009000778198242188,111.10150455605002,83.90232164207934,179,131.14761482271388,504.3868082795943,
110,1.3081307411193848,0.009001016616821289,111.09856170370567,84.08945416715117,212,139.2328533404425,535.8965332453108,
111,1.319131851196289,0.011001110076904297,90.89991764552902,84.14625111154488,193,144.60956800639823,532.1242442127968,
112,1.3271327018737793,0.008000850677490234,124.986709577448,84.39246492974452,,144.60956800639823,532.1242442127968,
113,1.3331332206726074,0.006000518798828125,166.65225683407502,84.76272157030785,259,156.04861120575842,642.0616938914413,
114,1.3411340713500977,0.008000850677490234,124.986709577448,85.0026872296504,,156.04861120575842,642.0616938914413,
115,1.3461344242095947,0.00500035285949707,199.9858866161255,85.42980398671861,231,163.54375008518258,710.6105179091368,
116,1.355135440826416,0.009001016616821289,111.09856170370567,85.60029979679267,278,174.98937507666434,755.4890744246949,
117,1.3641364574432373,0.009001016616821289,111.09856170370567,85.76854563310317,264,183.89043756899792,774.1615677133643,
118,1.3731374740600586,0.009001016616821289,111.09856170370567,85.93458574187808,264,191.90139381209815,783.4290996146757,
119,1.3831381797790527,0.01000070571899414,99.99294330806275,86.03623393507182,273,200.01125443088836,785.6290782927802,
120,1.392139196395874,0.009001016616821289,111.09856170370567,86.1982769472115,311,211.11012898779953,821.4242720135725,
121,1.4011402130126953,0.009001016616821289,111.09856170370567,86.35823800947725,334,223.39911608901957,864.9334335917619,
122,1.4101409912109375,0.009000778198242188,111.10150455605002,86.51617161716172,278,228.85920448011763,844.2686817252222,
123,1.4191417694091797,0.009000778198242188,111.10150455605002,86.67210186562801,278,233.7732840321059,820.4041177259257,
124,1.428142786026001,0.009001016616821289,111.09856170370567,86.8260521379985,297,240.0959556288953,810.9669659501056,
125,1.4371438026428223,0.009001016616821289,111.09856170370567,86.9780739896261,297,245.78636006600578,796.665268552126,
126,1.4461445808410645,0.009000778198242188,111.10150455605002,87.12821779321646,311,252.30772405940522,790.8947151819021,
127,1.4561455249786377,0.010000944137573242,99.99055951557918,87.21655756340915,301,257.1769516534647,766.5732812904464,
128,1.465146541595459,0.009001016616821289,111.09856170370567,87.36327484390434,264,257.8592564881182,711.3116656490898,
129,1.4731473922729492,0.008000850677490234,124.986709577448,87.56761249868099,287,260.77333083930637,683.5443775666863,
130,1.4811482429504395,0.008000850677490234,124.986709577448,87.76974257555793,292,263.89599775537573,660.0841763970208,
131,1.4891488552093506,0.008000612258911133,124.99043418660786,87.96971474123283,315,269.0063979798382,658.3775337190913,
132,1.4991497993469238,0.010000944137573242,99.99055951557918,88.04990672546752,311,273.2057581818544,639.2990411181282,
133,1.507150650024414,0.008000850677490234,124.986709577448,88.24598921006707,301,275.98518236366897,615.9464044690777,
134,1.5151515007019043,0.008000850677490234,124.986709577448,88.44000084342957,254,273.78666412730206,544.6878472867904,
135,1.5221521854400635,0.00700068473815918,142.8431699758199,88.69021198492756,240,270.4079977145718,462.5032658490297,
136,1.5311532020568848,0.009001016616821289,111.09856170370567,88.82194140815139,250,268.36719794311466,407.36461103437597,
137,1.539153814315796,0.008000612258911133,124.99043418660786,89.0099473657225,217,263.23047814880323,323.4121751607516,
138,1.5451545715332031,0.0060007572174072266,166.64563550399302,89.31145306910453,268,263.7074303339229,303.8977611474343,
139,1.5541555881500244,0.009001016616821289,111.09856170370567,89.4376348544726,212,258.5366873005306,233.62897113969245,
140,1.5621562004089355,0.008000612258911133,124.99043418660786,89.61971918259603,184,251.08301857047758,140.40767018031937,
141,1.5691568851470947,0.00700068473815918,142.8431699758199,89.8571719212018,189,244.87471671342982,58.22997517169614,
142,1.5771574974060059,0.008000612258911133,124.99043418660786,90.03539610568463,193,239.68724504208686,1.700830235409633,
143,1.5861585140228271,0.009001016616821289,111.09856170370567,90.15492382115222,198,235.51852053787817,-35.48637990794939,
144,1.5951595306396484,0.009001016616821289,111.09856170370567,90.27310261705107,184,230.36666848409035,-78.43653777820215,
145,1.6031603813171387,0.008000850677490234,124.986709577448,90.44634690939007,203,227.63000163568134,-99.52537352333218,
146,1.6121611595153809,0.009000778198242188,111.10150455605002,90.56166571082008,151,219.9670014721132,-159.67301144831984,
147,1.61916184425354,0.00700068473815918,142.8431699758199,90.78771249563961,175,215.47030132490187,-198.28500280912644,
148,1.6271626949310303,0.008000850677490234,124.986709577448,90.95587089173846,170,210.92327119241168,-227.88766935315286,
149,1.6351633071899414,0.008000612258911133,124.99043418660786,91.12239697700853,198,209.63094407317053,-222.578938024507,
150,1.6431643962860107,0.008001089096069336,124.98298519026193,91.28727493063991,198,208.4678496658535,-216.40198386931297,
151,1.651165246963501,0.008000850677490234,124.986709577448,91.45056818370514,221,209.72106469926814,-186.55900728620887,
152,1.659165859222412,0.008000612258911133,124.99043418660786,91.61229973188854,245,213.24895822934133,-136.3580511762744,
153,1.6671667098999023,0.008000850677490234,124.986709577448,91.77246587966371,203,212.2240624064072,-135.69727560762902,
154,1.6751675605773926,0.008000850677490234,124.986709577448,91.93110207251128,203,211.3016561657665,-134.06457523192947,
155,1.6831681728363037,0.008000612258911133,124.99043418660786,92.0882431722849,179,208.07149054918986,-155.63859344622043,
156,1.691169023513794,0.008000850677490234,124.986709577448,92.24388445566133,198,207.06434149427088,-153.25792568479162,
157,1.7001700401306152,0.009001016616821289,111.09856170370567,92.34370462611993,231,209.4579073448438,-119.7235537626677,
158,1.7071707248687744,0.00700068473815918,142.8431699758199,92.55079043845778,226,211.1121166103594,-91.2422698384844,
159,1.7151715755462646,0.008000850677490234,124.986709577448,92.7020959692386,179,207.9009049493235,-116.0515905929745,
160,1.7231724262237549,0.008000850677490234,124.986709577448,92.85199644856894,156,202.71081445439114,-158.66285001519918,
161,1.731173038482666,0.008000612258911133,124.99043418660786,93.00052416546,184,200.83973300895204,-164.67920459509838,
162,1.7391738891601562,0.008000850677490234,124.986709577448,93.14767258737393,179,198.65575970805685,-173.34227916220152,
163,1.7471747398376465,0.008000850677490234,124.986709577448,93.29347333349527,221,200.89018373725116,-137.13303225244292,
164,1.7561755180358887,0.009000778198242188,111.10150455605002,93.38474333329623,170,197.80116536352605,-153.6179567860189,
