Index,Time,Difference,Hz,AveHz,0x6103 Linear-Acceleration-X,0x6103 Linear-Acceleration-Y,0x6103 Linear-Acceleration-Z,0x6103 Range,0x6103 Smoothed Range,0x6103 Velocity,
0,1.1920928955078125e-06,1.1920928955078125e-06,838860.8,0.0,2.0,8.0,-3.0,77,107.5,-12792627.2,
1,0.017994165420532227,0.01799297332763672,55.57725128531298,55.57356935592861,1.0,8.0,-5.0,77,92.25,-6396737.37654105,
2,0.03665900230407715,0.018664836883544922,53.576680377078915,54.55685846031777,2.0,8.0,-1.0,133,112.625,-3197822.8758391836,
3,0.054815053939819336,0.018156051635742188,55.07805441748083,54.729490976943254,1.0,8.0,0.0,81,96.8125,-1599346.89878733,
4,0.0742030143737793,0.01938796043395996,51.57840111167132,53.9061658580471,2.0,8.0,0.0,114,105.40625,-799451.8234513883,
5,0.09216690063476562,0.017963886260986328,55.667241791203246,54.24941020653119,2.0,8.0,5.0,81,93.203125,-400065.5688806858,
6,0.11270403861999512,0.020537137985229492,48.692276436921716,53.23677903176333,2.0,9.0,-5.0,86,89.6015625,-200120.46857877032,
7,0.13357114791870117,0.020867109298706055,47.922306136672645,52.40652722592898,0.0,9.0,-1.0,175,132.30078125,-99037.11177301803,
8,0.15186810493469238,0.01829695701599121,54.653896772344055,52.67728864754208,1.0,8.0,-2.0,175,153.650390625,-48935.136213053454,
9,0.1705150604248047,0.018646955490112305,53.62805743437624,52.78126153536393,1.0,8.0,-2.0,128,140.8251953125,-24811.463261939647,
10,0.18865013122558594,0.01813507080078125,55.14177534707615,53.008179400851304,0.0,8.0,2.0,147,143.91259765625,-12320.609207747275,
11,0.20961809158325195,0.020967960357666016,47.69181088395152,52.47638654143189,1.0,9.0,-4.0,110,126.956298828125,-6564.642902374991,
12,0.2282240390777588,0.018605947494506836,53.74625507758941,52.57991247763103,2.0,10.0,0.0,161,143.9781494140625,-2824.8910894452893,
13,0.24620294570922852,0.017978906631469727,55.620734925539395,52.80196775286883,0.0,10.0,3.0,166,154.98907470703125,-1106.2276662200786,
14,0.2644622325897217,0.018259286880493164,54.766651433048246,52.93761556387961,-1.0,8.0,-6.0,114,134.49453735351562,-1114.322424870828,
15,0.2834441661834717,0.01898193359375,52.68167202572347,52.9204753160825,2.0,9.0,0.0,142,138.2472686767578,-458.3111320495619,
16,0.30035996437072754,0.01691579818725586,59.11633544749824,53.26941636020292,1.0,8.0,0.0,142,140.1236343383789,-173.69363508750115,
17,0.3186969757080078,0.018337011337280273,54.534513918685235,53.34220684784756,1.0,10.0,-8.0,119,129.56181716918945,-374.83860025363606,
18,0.3373141288757324,0.01861715316772461,53.713905181466586,53.36272174543645,2.0,6.0,0.0,119,124.28090858459473,-329.2484116192751,
19,0.3553791046142578,0.01806497573852539,55.355734459548636,53.46403250304582,2.0,8.0,0.0,161,142.64045429229736,343.528862687129,
20,0.37387704849243164,0.018497943878173828,54.06006238238857,53.49352168218172,0.0,8.0,0.0,114,128.32022714614868,-215.31175508182153,
21,0.39315319061279297,0.019276142120361328,51.877600494743355,53.41429371911772,1.0,9.0,0.0,105,116.66011357307434,-410.1052343745533,
22,0.4110422134399414,0.017889022827148438,55.90020258023243,53.52248328921206,2.0,7.0,-6.0,124,120.33005678653717,-102.47733264201595,
23,0.4286050796508789,0.0175628662109375,56.9383145091225,53.66245313456083,0.0,7.0,-2.0,119,119.66502839326859,-70.17146422771953,
24,0.4466991424560547,0.01809406280517578,55.266747483265696,53.72743692330027,1.0,8.0,1.0,110,114.83251419663429,-168.62440302120177,
25,0.4660758972167969,0.019376754760742188,51.60822915641303,53.63933245484085,2.0,9.0,-4.0,138,126.41625709831715,214.59602756890988,
26,0.48810815811157227,0.02203226089477539,45.38798831295314,53.26688269376742,1.0,7.0,0.0,119,122.70812854915857,23.145766158386337,
27,0.5130350589752197,0.02492690086364746,40.117301604001874,52.6279822940992,3.0,8.0,-5.0,157,139.8540642745793,355.4972204689599,
28,0.5366768836975098,0.02364182472229004,42.2979195449824,52.172919778266056,2.0,7.0,0.0,81,110.42703213728964,-444.60250866086454,
29,0.5545589923858643,0.017882108688354492,55.921816460674904,52.29380534473723,2.0,9.0,-4.0,63,86.71351606864482,-885.3527009444426,
30,0.5757451057434082,0.021186113357543945,47.20072922879554,52.10639170134791,0.0,8.0,-2.0,119,102.85675803432241,-61.68995402378289,
31,0.5963499546051025,0.020604848861694336,48.532265716302376,51.98289990736717,1.0,7.0,3.0,110,106.4283790171612,55.82445227663527,
32,0.616326093673706,0.019976139068603516,50.05972358150526,51.92056660989169,1.0,8.0,-8.0,119,112.7141895085806,185.24519398140802,
33,0.6351029872894287,0.018776893615722656,53.25694550256488,51.96007680713563,2.0,9.0,1.0,138,125.3570947542903,429.2838548231306,
34,0.6528420448303223,0.017739057540893555,56.37278066744621,52.07997902285355,1.0,8.0,0.0,119,122.17854737714515,125.0501503451203,
35,0.6715199947357178,0.018677949905395508,53.53906638924701,52.12056271500082,2.0,9.0,1.0,114,118.08927368857258,-46.942872575583905,
36,0.6902658939361572,0.018745899200439453,53.34500038155318,52.15381538658151,2.0,11.0,1.0,100,109.04463684428629,-264.7145142425229,
37,0.710299015045166,0.02003312110900879,49.91733412674799,52.09073814870385,1.0,8.0,-8.0,105,107.02231842214314,-182.83162931566,
38,0.7284529209136963,0.018153905868530273,55.08456456929724,52.16534783378549,0.0,7.0,-1.0,53,80.01115921107157,-835.36478648475,
39,0.7530040740966797,0.0245511531829834,40.731284292303954,51.792548462350965,1.0,8.0,2.0,128,104.00557960553579,70.97938601561401,
40,0.7689201831817627,0.015916109085083008,62.8294261275971,52.02100409756642,2.0,9.0,0.0,175,139.5027898027679,1150.6243659191978,
41,0.7870821952819824,0.018162012100219727,55.05997873373853,52.091128786506495,2.0,10.0,-2.0,81,110.25139490138395,-229.97840764159503,
42,0.8074162006378174,0.02033400535583496,49.1787024986223,52.01778211388644,0.0,9.0,3.0,86,98.12569745069197,-413.15223757873923,
43,0.8286669254302979,0.02125072479248047,47.05721850738231,51.890571085206034,1.0,10.0,-4.0,91,94.56284872534599,-290.40499427804696,
44,0.8471150398254395,0.0184481143951416,54.20608191064528,51.94099730429394,1.0,10.0,0.0,124,109.281424362673,253.7156611634644,
45,0.8666188716888428,0.01950383186340332,51.27197604058431,51.925940537511316,1.0,9.0,0.0,124,116.6407121813365,315.5204449388718,
46,0.88413405418396,0.017515182495117188,57.09332462158336,52.028309261831545,0.0,8.0,1.0,128,122.32035609066824,319.8950991946739,
47,0.9021570682525635,0.018023014068603516,55.48461518109903,52.0973582693719,1.0,6.0,1.0,124,123.16017804533412,183.2461485849743,
48,0.9213690757751465,0.019212007522583008,52.05078120152393,52.096387063585425,2.0,7.0,-7.0,166,144.58008902266707,649.084624111126,
49,0.9417440891265869,0.02037501335144043,49.07972244000047,52.03112030726379,1.0,9.0,0.0,100,122.29004451133353,-222.4522868401898,
50,0.961921215057373,0.020177125930786133,49.56107244561557,51.97930892606188,1.0,11.0,3.0,72,97.14502225566676,-734.3332782499533,
51,0.981269121170044,0.0193479061126709,51.685179480228214,51.97350950898028,2.0,8.0,2.0,86,91.57251112783338,-511.1747580237952,
52,1.0024242401123047,0.021155118942260742,47.2698831299095,51.87424437598823,0.0,8.0,0.0,114,102.78625556391668,9.448815459267735,
53,1.0198850631713867,0.01746082305908203,57.27106887323174,51.96664007921999,1.0,9.0,-5.0,96,99.39312778195834,-92.43961971847224,
54,1.0418150424957275,0.02192997932434082,45.59967819440971,51.832616920792304,1.0,7.0,3.0,86,92.69656389097918,-198.90038907771316,
55,1.0613489151000977,0.019533872604370117,51.193125923032795,51.820847242127584,1.0,8.0,2.0,91,91.84828194548959,-121.16329676569846,
56,1.0782222747802734,0.01687335968017578,59.265020064432264,51.93734289287616,0.0,8.0,0.0,110,100.9241409727448,208.35883529326995,
57,1.098564863204956,0.020342588424682617,49.15795272083729,51.88587575403427,-1.0,9.0,0.0,133,116.9620704863724,498.3753080321483,
58,1.1171259880065918,0.018561124801635742,53.87604526595676,51.91894255677969,0.0,10.0,-7.0,114,115.4810352431862,209.2914931148857,
59,1.1330971717834473,0.01597118377685547,62.61276646563564,52.069673695448806,1.0,7.0,3.0,114,114.7405176215931,81.46281810519451,
60,1.1534740924835205,0.020376920700073242,49.075128412135676,52.01677297390813,2.0,9.0,-1.0,138,126.37025881079654,326.0969301826285,
61,1.1708650588989258,0.017390966415405273,57.501117310776905,52.09823244479088,1.0,9.0,-9.0,142,134.18512940539827,387.7303605056817,
62,1.1916141510009766,0.02074909210205078,48.19487980879717,52.03026495440569,1.0,9.0,1.0,67,100.59256470269914,-615.6296289050727,
63,1.210191249847412,0.018577098846435547,53.82971842193075,52.057887551197716,2.0,8.0,1.0,77,88.79628235134956,-625.3100931519057,
64,1.2277390956878662,0.0175478458404541,56.98705180636133,52.12833917628295,1.0,8.0,0.0,105,96.89814117567478,-81.80452230112937,
65,1.2462000846862793,0.018460988998413086,54.16827885472227,52.15855848410026,1.0,9.0,2.0,86,91.44907058783738,-188.48564870108544,
66,1.2652430534362793,0.01904296875,52.51282051282051,52.16389042465027,0.0,8.0,-8.0,124,107.72453529391869,333.0924540860537,
67,1.2862322330474854,0.020989179611206055,47.643596296927356,52.090126711609535,0.0,9.0,-2.0,91,99.36226764695934,-32.6580249062672,
68,1.3033511638641357,0.01711893081665039,58.4148630957355,52.173199276851584,2.0,10.0,2.0,72,85.68113382347967,-415.9197920996342,
69,1.3229100704193115,0.01955890655517578,51.1276025159686,52.157740380742325,0.0,9.0,0.0,72,78.84056691173984,-382.8307890734775,
70,1.3424279689788818,0.019517898559570312,51.235023942147954,52.14432477389868,1.0,9.0,3.0,91,84.92028345586992,-35.66818318674993,
71,1.3606231212615967,0.018195152282714844,54.95969390429268,52.18197375197284,0.0,7.0,-3.0,72,78.46014172793497,-195.35779756620167,
72,1.38114595413208,0.0205228328704834,48.72621661496997,52.130623693022514,3.0,7.0,1.0,86,82.23007086396748,-5.8317069303973454,
73,1.3998370170593262,0.018691062927246094,53.50150517883566,52.148928132614316,2.0,7.0,0.0,100,91.11503543198374,234.7636354595479,
74,1.4210491180419922,0.021212100982666016,47.14290210183208,52.07420282696611,1.0,8.0,-6.0,133,112.05751771599188,611.0265137719481,
75,1.4374160766601562,0.016366958618164062,61.098706444470345,52.17695921021204,3.0,7.0,1.0,110,111.02875885799594,274.0853391525528,
76,1.4572381973266602,0.019822120666503906,50.44868895838345,52.1534503689403,1.0,8.0,4.0,119,115.01437942899797,237.57733582258444,
77,1.4771993160247803,0.019961118698120117,50.09739259223869,52.1256672438835,0.0,8.0,2.0,91,103.00718971449899,-181.9757806170806,
78,1.4949562549591064,0.017756938934326172,56.31601278229813,52.17543974364229,2.0,9.0,5.0,133,118.0035948572495,331.28098154528914,
79,1.5128600597381592,0.017903804779052734,55.854049591179056,52.218973917305384,0.0,9.0,-7.0,53,85.50179742862474,-742.0380119177869,
80,1.530163049697876,0.017302989959716797,57.79347975859123,52.28201008761494,1.0,6.0,1.0,114,99.75089871431237,40.73356740735869,
81,1.5487439632415771,0.018580913543701172,53.81866707727051,52.30044598880248,2.0,10.0,3.0,133,116.37544935715619,467.7223618818967,
82,1.56712007522583,0.01837611198425293,54.41847551086604,52.325282086749716,0.0,10.0,-4.0,105,110.68772467857809,79.10252787407316,
83,1.584599256515503,0.01747918128967285,57.210917572599676,52.37917388811293,0.0,7.0,-3.0,53,81.84386233928905,-785.5406514472023,
84,1.6059260368347168,0.021326780319213867,46.88940313691295,52.306269450344146,2.0,10.0,0.0,81,81.42193116964452,-402.66237607834677,
85,1.6255481243133545,0.019622087478637695,50.96297736358003,52.290054492176125,2.0,9.0,1.0,96,88.71096558482226,-15.595740087643946,
86,1.6442079544067383,0.01865983009338379,53.59105602759854,52.304819332315205,3.0,10.0,0.0,171,129.85548279241112,1094.6911934063714,
87,1.6625559329986572,0.018347978591918945,54.501916654755256,52.329066513319084,1.0,9.0,-7.0,138,133.92774139620556,658.3185462134929,
88,1.6803898811340332,0.017833948135375977,56.072833250892366,52.368799043595786,0.0,9.0,-3.0,119,126.46387069810278,119.89908457627703,
89,1.69842529296875,0.018035411834716797,55.44647436744838,52.401480576418585,2.0,9.0,0.0,72,99.23193534905138,-695.0078603654563,
90,1.7189271450042725,0.02050185203552246,48.77608121780186,52.35823999962273,3.0,10.0,-4.0,105,102.11596767452569,-277.1680327116777,
91,1.7356150150299072,0.016687870025634766,59.92376489413378,52.43098222357332,2.0,8.0,0.0,124,113.05798383726284,189.2593856459975,
92,1.7544159889221191,0.018800973892211914,53.18873403756166,52.43910257368499,1.0,10.0,0.0,58,85.52899191863142,-637.4864219181367,
93,1.7737271785736084,0.019311189651489258,51.78344876970752,52.43196424085271,1.0,9.0,-3.0,180,132.7644959593157,904.2654408419751,
94,1.7957780361175537,0.022050857543945312,45.34971023267883,52.34499927576052,1.0,9.0,4.0,138,135.38224797965785,511.48986821275065,
95,1.8191502094268799,0.023372173309326172,42.785922676731616,52.22218567092906,2.0,9.0,-5.0,119,127.19112398982892,80.51253527420448,
96,1.8384301662445068,0.019279956817626953,51.867336086859744,52.21846429777971,2.0,9.0,2.0,110,118.59556199491446,-182.65818378573127,
97,1.8611862659454346,0.022756099700927734,43.94426167675963,52.11729839986032,2.0,9.0,-6.0,114,116.29778099745724,-141.81623660693865,
98,1.8833889961242676,0.022202730178833008,45.039506040268456,52.03386034519121,2.0,11.0,-1.0,147,131.64889049872863,274.7950762501984,
99,1.9025192260742188,0.019130229949951172,52.2732869712605,52.03626783014593,1.0,9.0,2.0,128,129.82444524936432,89.71266308341228,
100,1.9216179847717285,0.019098758697509766,52.35942376351335,52.03947964292139,2.0,8.0,-2.0,142,135.91222262468216,204.23258922780408,
101,1.9403772354125977,0.01875925064086914,53.30703337485066,52.051734145666565,0.0,8.0,2.0,157,146.45611131234108,383.14800770077426,
102,1.9626140594482422,0.02223682403564453,44.9704507440923,51.971501737165624,1.0,10.0,-6.0,152,149.22805565617054,253.90179714016114,
103,1.9812071323394775,0.01859307289123535,53.7834711803552,51.988506561842456,3.0,8.0,0.0,152,150.61402782808528,164.22209575255604,
104,2.0028061866760254,0.02159905433654785,46.298323270009824,51.92714137387627,2.0,7.0,2.0,96,123.30701391404264,-550.0234309892232,
105,2.0230889320373535,0.020282745361328125,49.302990408124884,51.900832601688776,1.0,8.0,-2.0,63,93.15350695702132,-1018.3407476312861,
106,2.0418190956115723,0.01873016357421875,53.389816700611,51.914491459024454,1.0,8.0,2.0,119,106.07675347851065,-164.18549233608098,
107,2.061145305633545,0.019326210021972656,51.74320256600049,51.912885378603065,2.0,7.0,-5.0,133,119.53837673925533,266.1810034559074,
108,2.0837819576263428,0.02263665199279785,44.176144083416716,51.828839195356075,0.0,8.0,1.0,142,130.76918836962767,381.1574781064741,
109,2.102006196975708,0.018224239349365234,54.87197467228342,51.855222956442915,1.0,7.0,-5.0,53,91.88459418481384,-876.2584945723249,
110,2.119760036468506,0.01775383949279785,56.32584435640905,51.89266620162282,0.0,8.0,-10.0,119,105.44229709240692,-56.30471538440128,
111,2.1376872062683105,0.017927169799804688,55.78125332482179,51.92527684804224,2.0,9.0,7.0,96,100.72114854620347,-159.82814921214506,
112,2.1559550762176514,0.01826786994934082,54.74091959123478,51.949134393138536,3.0,9.0,0.0,63,81.86057427310173,-596.1366644702591,
113,2.1735429763793945,0.017587900161743164,56.857270669251314,51.98885010694894,2.0,7.0,-1.0,124,102.93028713655087,300.91485136513734,
114,2.1937379837036133,0.02019500732421875,49.517189270872684,51.966096610834846,1.0,9.0,0.0,161,131.96514356827544,869.3196663737289,
115,2.2162630558013916,0.02252507209777832,44.39497443822306,51.88914722869686,2.0,9.0,-7.0,114,122.98257178413772,235.26931081371558,
116,2.237100124359131,0.020837068557739258,47.99139558566083,51.85284231890644,1.0,9.0,-1.0,96,109.49128589206886,-206.09816369590305,
117,2.2558541297912598,0.018754005432128906,53.321942537503176,51.86505565890749,0.0,9.0,-2.0,105,107.24564294603442,-162.9201039120503,
118,2.278975009918213,0.023120880126953125,43.25094868833526,51.77766297851364,1.0,7.0,-4.0,67,87.12282147301721,-516.6256114530242,
119,2.2970871925354004,0.0181121826171875,55.21145745577085,51.8047379249258,2.0,9.0,1.0,96,91.5614107365086,-135.78231458406393,
120,2.31779408454895,0.020706892013549805,48.29309967645738,51.77336537354757,2.0,8.0,-5.0,114,102.7807053682543,203.01609968318712,
121,2.3366448879241943,0.01885080337524414,53.048136999468795,51.78364955039993,0.0,8.0,-1.0,110,106.39035268412715,197.2505825076874,
122,2.35628604888916,0.01964116096496582,50.91348733324432,51.77639618819425,2.0,8.0,-2.0,152,129.19517634206358,679.1618414764519,
123,2.377068042755127,0.020781993865966797,48.11857834476746,51.744416982459434,0.0,8.0,-3.0,119,124.09758817103179,216.93657284964945,
124,2.3984389305114746,0.021370887756347656,46.79262796197956,51.700294897046476,4.0,8.0,2.0,124,124.0487940855159,107.3266846796796,
125,2.417133092880249,0.018694162368774414,53.4926347740693,51.71415689445977,2.0,8.0,-7.0,67,95.52439704275795,-709.2592342395567,
126,2.4362430572509766,0.01910996437072754,52.32872132047459,51.71897755644163,1.0,8.0,1.0,133,114.26219852137898,135.63297874678977,
127,2.454948902130127,0.01870584487915039,53.459226592571824,51.73223764038582,2.0,7.0,1.0,86,100.1310992606895,-309.9023293162667,
128,2.4735329151153564,0.018584012985229492,53.80969120043106,51.74784585149963,1.0,9.0,-3.0,67,83.56554963034475,-600.6447197452662,
129,2.4923150539398193,0.01878213882446289,53.24207265987966,51.759106376249854,2.0,11.0,1.0,58,70.78277481517237,-640.6130726247768,
130,2.511881113052368,0.019566059112548828,51.108912338849215,51.754041751612846,1.0,8.0,-6.0,44,57.39138740758619,-662.5161588673343,
131,2.5334360599517822,0.021554946899414062,46.393062560835325,51.70842953995581,2.0,8.0,2.0,124,90.6956937037931,441.2863033389074,
132,2.5532679557800293,0.01983189582824707,50.423822747983316,51.69845166512251,2.0,9.0,1.0,67,78.84784685189655,-78.06371313318817,
133,2.5703539848327637,0.017086029052734375,58.527349854878324,51.743845705615314,0.0,10.0,-4.0,133,105.92392342594827,753.3136466069062,
134,2.5874850749969482,0.01713109016418457,58.37340124977384,51.78773833126672,0.0,8.0,1.0,105,105.46196171297413,363.17368508671683,
135,2.604933023452759,0.017447948455810547,57.3133284140909,51.82474896074742,0.0,9.0,6.0,147,126.23098085648707,776.7576500487073,
136,2.6238460540771484,0.01891303062438965,52.873599152873545,51.83230921214756,3.0,8.0,-9.0,128,127.11549042824353,411.7624272963193,
137,2.6421120166778564,0.018265962600708008,54.74663568846018,51.852457100687694,1.0,10.0,2.0,166,146.55774521412178,738.0802335105086,
138,2.6609880924224854,0.018876075744628906,52.97711312080028,51.86043499892886,2.0,11.0,-3.0,96,121.27887260706089,-300.56073008002784,
139,2.681655168533325,0.020667076110839844,48.38613815698399,51.83365916357662,3.0,8.0,-3.0,86,103.63943630353045,-577.0324660369854,
140,2.7033770084381104,0.021721839904785156,46.036615884444835,51.78707947985609,2.0,6.0,0.0,100,101.81971815176522,-330.4030658038766,
141,2.7202162742614746,0.016839265823364258,59.385011822339266,51.83411382915897,0.0,9.0,-4.0,138,119.90985907588261,371.94008342130905,
142,2.7400619983673096,0.01984572410583496,50.38868799481013,51.82364489730961,1.0,9.0,2.0,133,126.4549295379413,350.868798419016,
143,2.758932113647461,0.018870115280151367,52.993846892491185,51.83164866312933,1.0,6.0,3.0,147,136.72746476897066,447.6249788249539,
144,2.7783710956573486,0.019438982009887695,51.443023070413204,51.82892962897396,2.0,9.0,0.0,91,113.86373238448533,-364.27726685293925,
145,2.797039270401001,0.018668174743652344,53.56710089399745,51.84053064053401,1.0,9.0,1.0,67,90.43186619224267,-809.7272036537249,
146,2.8168280124664307,0.019788742065429688,50.53378313253012,51.831350495609975,2.0,8.0,-8.0,100,95.21593309612133,-283.98510212080276,
147,2.8347511291503906,0.01792311668395996,55.79386764216827,51.85640407313558,2.0,7.0,1.0,147,121.10796654806066,580.3157926416467,
148,2.8528380393981934,0.018086910247802734,55.28860298963908,51.878164114504244,2.0,8.0,3.0,63,92.05398327403033,-513.0191769319151,
