Index,Time,Difference,Hz,AveHz,0x6030 Range,0x6030 Smoothed Range,0x6030 Velocity,
0,2.1457672119140625e-06,2.1457672119140625e-06,466033.77777777775,0.0,1363,681.5,158801009.7777778,
1,0.0150909423828125,0.015088796615600586,66.27433754167522,66.26491405460061,1364,1022.75,79411812.94773194,
2,0.02992415428161621,0.014833211898803711,67.41628224704654,66.83563990407215,1341,1181.875,39711270.28182225,
3,0.04489707946777344,0.014972925186157227,66.78721676406427,66.81949105739412,1378,1279.9375,19858909.801633086,
4,0.06103706359863281,0.016139984130859375,61.95792956747814,65.533952063998,1363,1321.46875,9930741.495947719,
5,0.07695698738098145,0.015919923782348633,62.814371078130385,64.97135828936648,1322,1321.734375,4965379.0905075185,
6,0.09171700477600098,0.014760017395019531,67.75059766104542,65.4186212758878,1363,1342.3671875,2483388.4879429108,
7,0.10716795921325684,0.01545095443725586,64.72092090238559,65.31803023392919,1345,1343.68359375,1241736.8434838462,
8,0.12115001678466797,0.013982057571411133,71.52023190382812,66.03383319557602,1359,1351.341796875,621142.2799736564,
9,0.13671398162841797,0.01556396484375,64.25098039215686,65.83086742701684,1317,1334.1708984375,310019.51645741647,
10,0.15232586860656738,0.015611886978149414,64.05375605137368,65.64873118057415,1327,1330.58544921875,154894.92748391203,
11,0.16618800163269043,0.013862133026123047,72.13897010766743,66.19009731106976,1331,1330.792724609375,77454.9400585602,
12,0.18083715438842773,0.014649152755737305,68.2633334960858,66.35804484196149,1322,1326.3963623046875,38577.414856192845,
13,0.19529008865356445,0.014452934265136719,69.19010227647641,66.56763837647387,1350,1338.1981811523438,19696.991954655314,
14,0.2106630802154541,0.015372991561889648,65.04914778455,66.45682758308482,1331,1334.5990905761719,9731.437089937965,
15,0.22801995277404785,0.01735687255859375,57.614065934065934,65.78371680860741,1331,1332.799545288086,4813.878984529422,
16,0.2444591522216797,0.016439199447631836,60.83021275978594,65.45060741064393,1313,1322.899772644043,2105.83685415939,
17,0.2619662284851074,0.017507076263427734,57.11976031594716,64.89386093126289,1322,1322.4498863220215,1040.06972763805,
18,0.27937889099121094,0.017412662506103516,57.4294712051921,64.42863287250384,1336,1329.2249431610107,714.5788296431617,
19,0.2955489158630371,0.016170024871826172,61.842823862463504,64.28715850477,1299,1314.1124715805054,-110.00954421825872,
20,0.3109860420227051,0.015437126159667969,64.77889664545623,64.3115680366767,1359,1336.5562357902527,671.9363689299761,
21,0.32674407958984375,0.015758037567138672,63.45967863951342,64.27048357344665,1359,1347.7781178951263,692.0367005178824,
22,0.34180712699890137,0.015063047409057617,66.3876288007091,64.36378373137525,1374,1360.8890589475632,781.2204941675184,
23,0.3563411235809326,0.01453399658203125,68.80419947506562,64.54489386144682,1355,1357.9445294737816,289.31225044662006,
24,0.3707761764526367,0.014435052871704102,69.27581137996532,64.72907787554625,1331,1344.4722647368908,-321.9949101635923,
25,0.38570189476013184,0.014925718307495117,66.99845055348786,64.81689703792487,1359,1351.7361323684454,82.33648308809987,
26,0.4010040760040283,0.015302181243896484,65.35016048113178,64.83724619232751,1377,1364.3680661842227,453.91769256809096,
27,0.4167029857635498,0.015698909759521484,63.69869088479179,64.7943521463526,1355,1359.6840330921113,77.77545826977735,
28,0.43259716033935547,0.015894174575805664,62.916132903322584,64.72534396211732,1331,1345.3420165460557,-412.2843804217565,
29,0.44832491874694824,0.015727758407592773,63.58185153182652,64.68522892069872,1369,1357.1710082730278,169.9124076668959,
30,0.46309399604797363,0.01476907730102539,67.70903690310917,64.78166475060969,1341,1349.085504136514,-188.77464514628338,
31,0.47859621047973633,0.015502214431762695,64.50691315113579,64.77276526892294,1369,1359.042752068257,226.76834120549572,
32,0.4932858943939209,0.01468968391418457,68.07498417541753,64.8711028709163,1303,1331.0213760341285,-840.3931944456122,
33,0.5087161064147949,0.015430212020874023,64.80792348460267,64.86918653425255,1322,1326.5106880170642,-566.3607591592128,
34,0.5251169204711914,0.016400814056396484,60.97258322430586,64.74748513053349,1299,1312.7553440085321,-702.5298082491972,
35,0.5397429466247559,0.014626026153564453,68.37127115052326,64.84568296606749,1378,1345.377672004266,763.950112354217,
36,0.5547749996185303,0.015032052993774414,66.5245126806135,64.89117214141592,1363,1354.188836002133,675.0542517306417,
37,0.5698821544647217,0.015107154846191406,66.19380089640805,64.92570386723781,1355,1354.5944180010665,350.950632907606,
38,0.5856058597564697,0.015723705291748047,63.59824109173616,64.89006106565036,1345,1349.7972090005333,22.92828916212261,
39,0.6007089614868164,0.01510310173034668,66.21156487284323,64.92328648380905,1377,1363.3986045002666,461.74898482695835,
40,0.6159811019897461,0.015272140502929688,65.47870613213438,64.93705711229086,1313,1338.1993022501333,-594.1343609721769,
41,0.6310679912567139,0.015086889266967773,66.28271622497195,64.96922767125658,1355,1346.5996511250667,-18.66821015210388,
42,0.6447329521179199,0.013664960861206055,73.17986565471517,65.1432501813841,1317,1331.7998255625334,-550.858728265752,
43,0.660059928894043,0.015326976776123047,65.24443891360482,65.14559984280251,1345,1338.3999127812667,-60.11987044932229,
44,0.6742851734161377,0.014225244522094727,70.29756138439622,65.2542896310212,1308,1323.1999563906334,-564.3198689300082,
45,0.6884050369262695,0.014119863510131836,70.82221434240076,65.36849323608254,1378,1350.5999781953167,688.1051741538641,
46,0.703322172164917,0.014917135238647461,67.03700033564019,65.40388149346413,1331,1340.7999890976585,15.571650862439697,
47,0.7185328006744385,0.015210628509521484,65.74350293112637,65.4110709432948,1345,1342.8999945488292,76.81668269843338,
48,0.7337040901184082,0.015171289443969727,65.91397545298823,65.42146983568479,1350,1346.4499972744147,155.40573760535867,
49,0.7496881484985352,0.015984058380126953,62.562334059246446,65.36051036439153,1327,1336.7249986372074,-226.5064379306624,
50,0.7649338245391846,0.015245676040649414,65.59236844162953,65.36513146104012,1364,1350.3624993186036,334.0047656932256,
51,0.7802250385284424,0.015291213989257812,65.39703130846951,65.36575664911943,1364,1357.1812496593018,389.96539760425196,
52,0.7946591377258301,0.014434099197387695,69.28038849705159,65.43686158170225,1369,1363.090624829651,399.6846025904382,
53,0.8102898597717285,0.015630722045898438,63.976571079926785,65.40869216224789,1374,1368.5453124148255,374.3284053010743,
54,0.8250272274017334,0.014737367630004883,67.85472311649653,65.45238533528493,1424,1396.2726562074126,1127.8798205514915,
55,0.8386969566345215,0.013669729232788086,73.15433853667045,65.57791770307725,1391,1393.6363281037063,467.51049097961055,
56,0.8541851043701172,0.015488147735595703,64.56549983067023,65.55956046704284,1374,1383.8181640518533,-83.20208922389995,
57,0.8692841529846191,0.015099048614501953,66.22933838623085,65.57119418810863,1382,1382.9090820259266,-71.70499516991772,
58,0.884350061416626,0.015065908432006836,66.37502175942777,65.58488830440147,1364,1373.4545410129633,-349.62518031538013,
59,0.898522138595581,0.014172077178955078,70.5612866323475,65.66337930439744,1364,1368.7272705064815,-341.5937347559415,
60,0.9142100811004639,0.015687942504882812,63.74322188449848,65.63042919826052,1378,1373.3636352532408,-23.028453982900743,
61,0.9287118911743164,0.014501810073852539,68.95690916563913,65.68237208944112,1382,1377.6818176266204,137.37002784945065,
62,0.9443809986114502,0.01566910743713379,63.819844494149514,65.65146915403882,1433,1405.3409088133103,951.2844631167513,
63,0.9591259956359863,0.014744997024536133,67.81961355000404,65.68480083602088,1368,1386.6704544066552,-157.46926977278554,
64,0.9729459285736084,0.01381993293762207,72.3592512723195,65.77960616354855,1377,1381.8352272033276,-253.6713449685602,
65,0.988213062286377,0.015267133712768555,65.50017958928711,65.77528923733603,1410,1395.9176136016638,334.36374658409784,
66,1.0021541118621826,0.013941049575805664,71.73061070921622,65.858134211873,1377,1386.458806800832,-172.06112091002672,
67,1.0187621116638184,0.016607999801635742,60.21194676926169,65.7660892890659,1372,1379.229403400416,-303.67878681469733,
68,1.0334510803222656,0.014688968658447266,68.07829897743872,65.79895390771208,1363,1371.1147017002081,-428.0569376370902,
69,1.0506172180175781,0.0171661376953125,58.254222222222225,65.67567979724994,1391,1381.057350850104,75.57217770926843,
70,1.0655629634857178,0.014945745468139648,66.90867324963709,65.69297394779267,1419,1400.028675425052,672.4591674036324,
71,1.0816261768341064,0.016063213348388672,62.25404458693264,65.64190246191644,1386,1393.014337712526,117.89413735011914,
72,1.0968971252441406,0.01527094841003418,65.48381758286365,65.63970161192161,1391,1392.007168856263,25.9704378457264,
73,1.111875057220459,0.01497793197631836,66.7648912801248,65.65485890338287,1391,1391.5035844281315,-3.825660874418155,
74,1.127425193786621,0.01555013656616211,64.30811689307289,65.63628381539024,1382,1386.7517922140657,-154.70223501407585,
75,1.1426661014556885,0.015240907669067383,65.61289010559248,65.63597178953194,1386,1386.375896107033,-89.68293248796815,
76,1.1567392349243164,0.01407313346862793,71.05738052077862,65.70192979143874,1410,1398.1879480535165,374.8252687022571,
77,1.1713190078735352,0.01457977294921875,68.58817373103088,65.7378557697866,1405,1401.5939740267581,304.2191849436791,
78,1.1859169006347656,0.014597892761230469,68.50303782583131,65.77189342545861,1382,1391.796987013379,-183.45209350650265,
79,1.2010061740875244,0.015089273452758789,66.27224320182022,65.77817975000919,1386,1388.8984935066896,-187.7708800503603,
80,1.2165608406066895,0.015554666519165039,64.2893885746693,65.75914440917285,1382,1385.4492467533448,-204.76042243303107,
81,1.2320749759674072,0.015514135360717773,64.45734659064713,65.74275233242197,1410,1397.7246233766723,293.23889155375787,
82,1.2478320598602295,0.015757083892822266,63.463519443183536,65.71397116466528,1386,1391.8623116883361,-39.402020130482725,
83,1.2640058994293213,0.016173839569091797,61.82823786078599,65.66425048923679,1386,1388.9311558441682,-110.31511043536618,
84,1.2795991897583008,0.015593290328979492,64.13014693515588,65.6455557899083,1382,1385.465577922084,-166.28156589692566,
85,1.2943859100341797,0.014786720275878906,67.62824895195098,65.66820554911284,1424,1404.732788961042,568.3630894277466,
86,1.310232162475586,0.01584625244140625,63.106403466538275,65.63722251903008,1443,1423.866394480521,887.9080595547871,
87,1.3269250392913818,0.0166928768157959,59.90579161608227,65.5651204279487,1350,1386.9331972402606,-662.3021790179578,
88,1.340372085571289,0.013447046279907227,74.36577365649545,65.65341142753874,1386,1386.4665986201303,-348.50057319550035,
89,1.353821039199829,0.013448953628540039,74.35522700278324,65.73985587681746,1364,1375.2332993100651,-591.8775466928014,
90,1.3692831993103027,0.015462160110473633,64.67401662220715,65.72782025320423,1350,1362.6166496550327,-703.9234780994674,
91,1.3852732181549072,0.015990018844604492,62.53901322558039,65.69101229085048,1369,1365.8083248275163,-252.15963113787774,
92,1.3999240398406982,0.014650821685791016,68.25555736371034,65.71785138461439,1396,1380.904162413758,389.1075885915491,
93,1.413935899734497,0.014011859893798828,71.36811298281437,65.77384449851166,1419,1399.952081206879,874.2608045532397,
94,1.4286179542541504,0.01468205451965332,68.11035871453858,65.79785709684386,1382,1390.9760406034395,131.44972960835554,
95,1.4445672035217285,0.015949249267578125,62.69887586701746,65.76364171109402,1410,1400.4880203017196,363.92008198020574,
96,1.4601550102233887,0.015587806701660156,64.15270724992352,65.74644426642962,1410,1405.2440101508598,334.51485322785175,
97,1.4774012565612793,0.017246246337890625,57.98363193983632,65.6558261130575,ranging-error,1405.2440101508598,334.51485322785175,
98,1.485011100769043,0.007609844207763672,131.40873488313804,65.99277267977911,1400,1402.62200507543,-5.019758295772419,
99,1.5019011497497559,0.01689004898071289,59.20645944496203,65.91645529833652,1410,1406.311002537715,106.69636017378578,
100,1.5189659595489502,0.017064809799194336,58.60012574222843,65.83426005787156,1419,1412.6555012688575,239.2423917950723,
101,1.534437894821167,0.015471935272216797,64.63315560760626,65.82214916672869,1372,1392.3277506344289,-537.3021390562853,
102,1.549018144607544,0.014580249786376953,68.58593060143245,65.84816346734435,1405,1398.6638753172144,-51.36656564036565,
103,1.5639920234680176,0.014973878860473633,66.7829631398774,65.85711337044187,1372,1385.3319376586073,-470.85643343913364,
104,1.577688217163086,0.01369619369506836,73.01298610869338,65.91923478201998,1415,1400.1659688293037,306.11023918142126,
105,1.5912539958953857,0.013565778732299805,73.71489832861738,65.98569447168448,1369,1384.582984414652,-421.2939363005296,
106,1.6051859855651855,0.013931989669799805,71.77725678103876,66.03596153543381,1419,1401.791492207326,406.9427731763702,
107,1.6192991733551025,0.014113187789916992,70.85571416504773,66.077968642633,1374,1387.895746103663,-288.82512042742496,
108,1.6341619491577148,0.014862775802612305,67.28218290315854,66.0889210250341,1410,1398.9478730518315,227.39305318408793,
109,1.6485700607299805,0.014408111572265625,69.40534815991528,66.11790581210435,1350,1374.4739365259156,-735.6145161203849,
110,1.6620280742645264,0.013458013534545898,74.30517122256276,66.18420091891453,1359,1366.7369682629578,-655.2556338214997,
111,1.6770031452178955,0.01497507095336914,66.77764687151728,66.18950019057812,1345,1355.868484131479,-690.5137145910437,
112,1.691023826599121,0.014020681381225586,71.32320982195998,66.23206500008177,1391,1373.4342420657395,281.1662621179896,
113,1.7052290439605713,0.014205217361450195,70.39667007938772,66.26675777087739,1377,1375.2171210328697,203.3375022792695,
114,1.7198281288146973,0.014599084854125977,68.49744418859112,66.28569337249334,1378,1376.6085605164349,149.32377532328724,
115,1.7357420921325684,0.015913963317871094,62.83789776472703,66.25408263200475,1355,1365.8042802582174,-264.79724148201916,
116,1.751168966293335,0.015426874160766602,64.82194575380574,66.24146626212485,1415,1390.4021401291088,664.8419483643089,
117,1.7666380405426025,0.015469074249267578,64.64510958355167,66.22748820922298,1396,1393.2010700645544,422.889540378936,
118,1.7836720943450928,0.017034053802490234,58.705931752652354,66.15565740704477,1368,1380.600535032277,-158.41830463642077,
119,1.7988560199737549,0.01518392562866211,65.85912131394655,66.15315438182552,1364,1372.3002675161385,-352.5333149599996,
120,1.8151590824127197,0.016303062438964844,61.33816905527932,66.10990803103347,1341,1356.6501337580694,-656.2419325750898,
121,1.830949068069458,0.01578998565673828,63.33127982122365,66.08594532210647,1368,1362.3250668790347,-148.42057756225296,
122,1.845400094985962,0.014451026916503906,69.19923447502144,66.11032498127625,1369,1365.6625334395173,41.26477675456475,
123,1.8617570400238037,0.016356945037841797,61.13611054426727,66.06662274172325,1396,1380.8312667197588,484.3110656959556,
124,1.8782000541687012,0.01644301414489746,60.81610045384024,66.02065617279672,1363,1371.9156333598794,-28.95149416403936,
125,1.8948009014129639,0.016600847244262695,60.23788938516997,65.96999183755231,1359,1365.4578166799397,-208.97837049997622,
126,1.9084899425506592,0.013689041137695312,73.051135571966,66.02078281408362,1415,1390.2289083399698,800.2890023112413,
127,1.9226880073547363,0.014198064804077148,70.43213380127958,66.05335837857987,1378,1384.114454169985,184.81747404453967,
128,1.9363830089569092,0.013695001602172852,73.01934158527881,66.10262505295945,1363,1373.5572270849925,-293.03214833394316,
129,1.9521842002868652,0.015801191329956055,63.28636740852509,66.07982995715466,1355,1364.2786135424963,-440.120947013039,
130,1.9668521881103516,0.014667987823486328,68.17567699359579,66.09545993636522,1368,1366.1393067712481,-156.63346323274033,
131,1.9825541973114014,0.015702009201049805,63.686117311225495,66.07637772407577,1405,1385.569653385624,540.4049353240857,
132,1.997864007949829,0.015309810638427734,65.31759429407917,66.07056309876464,1396,1390.784826692812,440.52375478815213,
133,2.0121421813964844,0.014278173446655273,70.0369696261292,66.0987087441774,1377,1383.892413346406,-21.09999470240183,
134,2.0281100273132324,0.015967845916748047,62.62585480932899,66.07136604788568,1350,1366.946206673203,-541.1853366936491,
135,2.0434861183166504,0.015376091003417969,65.0360354772685,66.06357576395385,1374,1370.4731033366015,-155.904980084103,
136,2.0578718185424805,0.014385700225830078,69.51347409592628,66.08769252514674,1331,1350.7365516683008,-763.9306266107194,
137,2.071964979171753,0.014093160629272461,70.95640405339108,66.12080868990574,1396,1373.3682758341504,420.9675688631006,
138,2.087170124053955,0.015205144882202148,65.76721285770286,66.11823272554307,1317,1345.184137917075,-716.3123143700225,
139,2.1026949882507324,0.015524864196777344,64.41280176915043,66.10564098772902,1378,1361.5920689585375,170.28424762279462,
140,2.1172921657562256,0.014597177505493164,68.50639444671295,66.12219242307388,1345,1353.2960344792687,-199.02358137876513,
141,2.132387161254883,0.015094995498657227,66.24712144425315,66.12307678546671,1341,1347.1480172396343,-303.1560130470913,
142,2.147724151611328,0.015336990356445312,65.20184056709364,66.11649819808778,1369,1358.074008619817,204.61936748051102,
143,2.161807060241699,0.014082908630371094,71.00805850883727,66.14836385260578,1359,1358.5370043099085,118.74789626593298,
144,2.1750731468200684,0.01326608657836914,75.38018043923655,66.20467004087946,1369,1363.7685021549541,256.5495738964746,
145,2.189664125442505,0.014590978622436523,68.53549894606121,66.22020168079305,1363,1363.384251077477,115.10736729051085,
146,2.20452618598938,0.014862060546875,67.28542094455852,66.22738297593682,1355,1359.1921255387385,-83.4807821179729,
147,2.2201080322265625,0.015581846237182617,64.1772473414429,66.21299408235221,1275,1317.0960627693694,-1392.5451072843412,
148,2.2343339920043945,0.014225959777832031,70.29402694911846,66.23897793687995,1322,1319.5480313846847,-610.0931796804871,
149,2.2482380867004395,0.013904094696044922,71.92125930244521,66.2741196679376,1359,1339.2740156923423,404.3122263532622,
150,2.261214017868042,0.012975931167602539,77.06576022048691,66.33604728022412,1372,1355.6370078461712,832.6693280849715,
151,2.274181842803955,0.012967824935913086,77.11393429059954,66.39750487754505,1350,1352.8185039230857,307.66170088118065,
152,2.2872519493103027,0.013070106506347656,76.51047063115651,66.45529367494213,1327,1339.9092519615429,-340.0156210963216,
153,2.3003170490264893,0.013065099716186523,76.5397908720962,66.51257054533014,1355,1347.4546259807714,118.7528641935908,
154,2.3142342567443848,0.013917207717895508,71.85349390985559,66.54468948041756,1369,1358.2273129903856,446.40403231584156,
155,2.3278989791870117,0.013664722442626953,73.18114247827756,66.58364533246701,1331,1344.6136564951928,-274.9294516545957,
156,2.342195987701416,0.014297008514404297,69.94470199779876,66.60416157278762,1341,1342.8068282475965,-200.65375749696145,
157,2.3575501441955566,0.015354156494140625,65.12894409937888,66.59455383655119,1345,1343.9034141237983,-64.61713863282485,
158,2.3727810382843018,0.015230894088745117,65.65602742513657,66.58852943053094,1289,1316.451707061899,-933.4935851778484,
159,2.3878509998321533,0.015069961547851562,66.35716997848374,66.58706929836762,1317,1316.7258535309495,-457.6510006660319,
160,2.402416944503784,0.01456594467163086,68.65328837529053,66.59959686267023,1336,1326.3629267654746,101.98288359880797,
161,2.416934013366699,0.014517068862915039,68.8844290430127,66.61332047527975,1345,1335.6814633827373,371.9424789976773,
162,2.4318320751190186,0.014898061752319336,67.12282554771393,66.61644184131069,1317,1326.3407316913685,-127.51691240503584,
