Index,Time,Difference,Hz,AveHz,0x6109 Pressure,0x6109 Acceleration-X,0x6109 Acceleration-Y,0x6109 Acceleration-Z,0x6109 Measured-X,0x6109 Measured-Y,0x6109 Measured-Z,0x6109 Smoothed-X,0x6109 Smoothed-Y,0x6109 Smoothed-Z,0x6109 Velocity-X,0x6109 Velocity-Y,0x6109 Velocity-Z,
0,0.0,0.0,0,0,99769.5,-202.0,156.0,945.0,1687,4229,1240,1691.0000000000002,4236.2,248.0,,,,
1,0.06709814071655273,0.06709814071655273,14.903542621611058,14.903542621611058,99769.5,-202.0,158.0,952.0,1675,4258,1232,1687.8000000000002,4240.56,444.8,-4.769133638915607,6.49794458302329,293.30171879330567,
2,0.13186383247375488,0.06476569175720215,15.440273590358075,15.167161172856582,99769.5,-202.0,155.0,952.0,1668,4280,1234,1683.8400000000001,4248.448,602.6400000000001,-10.4065686168059,18.027437932795287,507.6808252641871,
3,0.19638824462890625,0.06452441215515137,15.498010235187614,15.275863408569986,99768.0,-203.0,157.0,943.0,1823,4376,65,1711.672,4273.9584,495.1120000000001,33.76815033144867,55.76073816988895,290.265738280843,
4,0.2615506649017334,0.06516242027282715,15.346268536575549,15.293404058073532,99768.0,-203.0,158.0,950.0,1684,4273,1214,1706.1376,4273.7667200000005,638.8896000000001,21.89809643942143,49.890507077591124,481.88413036719317,
5,0.3301525115966797,0.06860184669494629,14.576867069580903,15.14451601721598,99768.0,-199.0,157.0,953.0,1690,4252,1213,1702.91008,4269.413376,753.7116800000001,15.00357379503804,38.5556446902161,601.0703370117524,
6,0.39728617668151855,0.06713366508483887,14.895656281185742,15.102463544332815,99768.0,-202.0,156.0,946.0,1676,4277,1240,1697.5280640000003,4270.9307008000005,850.9693440000001,5.486350371950326,36.960235089966524,685.8349766760824,
7,0.4615931510925293,0.06430697441101074,15.550412830941374,15.164869720081278,99768.0,-202.0,156.0,949.0,1704,4299,1248,1698.8224512000004,4276.544560640001,930.3754752000001,6.950540867064037,41.993995389674524,740.7312911552636,
8,0.5263633728027344,0.06477022171020508,15.439193715812799,15.198625917685511,99768.0,-203.0,155.0,954.0,1715,4285,1334,1702.0579609600004,4278.235648512001,1011.1003801600002,11.250852975761951,40.40549917533408,791.2909065765392,
9,0.5925235748291016,0.06616020202636719,15.114826880387465,15.189269055827562,99765.75,-204.0,157.0,937.0,1693,4270,1331,1700.2463687680006,4276.588518809601,1075.0803041280003,7.3875774421918825,33.87534122766869,808.8663633785527,
10,0.6582207679748535,0.06569719314575195,15.22135044310734,15.192471107781937,99765.75,-203.0,156.0,946.0,1736,4278,543,1707.3970950144005,4276.870815047681,968.6642433024003,17.533190709890576,30.917500101761334,566.0001115805491,
11,0.7221169471740723,0.06389617919921875,15.650388059701493,15.23298967438353,99765.75,-199.0,157.0,954.0,1761,4270,525,1718.1176760115206,4275.496652038146,879.9313946419203,32.55799692194067,25.67513165593334,370.52974890456653,
12,0.7879664897918701,0.06584954261779785,15.186134333600055,15.229074022132115,99765.75,-204.0,157.0,939.0,1771,4238,507,1728.6941408092166,4267.997321630517,805.3451157135363,45.36375874898691,11.719034592109738,220.20904888912963,
13,0.8535652160644531,0.06559872627258301,15.244198429169044,15.230236372493374,99765.75,-201.0,156.0,953.0,1698,4283,1257,1722.5553126473733,4270.997857304414,895.676092570829,31.469231411917157,15.121207253566777,335.8904775515414,
14,0.9208254814147949,0.0672602653503418,14.867619013859843,15.203749551424025,99765.75,-205.0,160.0,952.0,1696,4283,1277,1717.2442501178987,4273.398285843531,971.9408740566632,20.426022846023915,17.17795222716955,415.6890013270527,
15,0.9819753170013428,0.06114983558654785,16.353273731777403,15.27533303566681,99769.0,-203.0,159.0,949.0,1603,4310,1358,1694.395400094319,4280.718628674826,1049.1526992453305,-18.981929327771127,27.431314017513948,500.3867124583896,
16,1.0470693111419678,0.065093994140625,15.362400375058604,15.280745820493852,99769.0,-204.0,157.0,947.0,1601,4302,1322,1675.7163200754553,4284.974902939861,1103.7221593962645,-45.77928698374818,31.226841552315527,534.179830721496,
17,1.11177659034729,0.06470727920532227,15.454211833368952,15.290841836028983,99769.0,-206.0,159.0,949.0,1605,4296,1354,1661.5730560603643,4287.179922351889,1153.7777275170117,-63.058658095821514,31.511841106101695,558.1187829671122,
18,1.1788549423217773,0.0670783519744873,14.907939306265927,15.269054193002454,99769.0,-200.0,155.0,952.0,1598,4237,1383,1648.8584448482916,4277.143937881512,1199.6221820136093,-75.70765751147412,13.39907225919058,570.6515391868156,
19,1.243093490600586,0.0642385482788086,15.566976944432072,15.28444975672777,99769.0,-201.0,158.0,944.0,1613,4287,1340,1641.6867558786334,4279.11515030521,1227.6977456108875,-79.30104344465732,15.12774686849935,557.2915503902108,
20,1.3081891536712646,0.06509566307067871,15.362006512081045,15.288308990999177,99769.0,-203.0,157.0,956.0,1794,4477,-51,1672.1494047029068,4318.692120244168,971.95819648871,-24.574198138818993,74.41313917472094,108.6951334500335,
21,1.3736188411712646,0.0654296875,15.283582089552239,15.288083834154174,99774.75,-205.0,154.0,956.0,1630,4336,1371,1663.7195237623255,4322.153696195334,1051.7665571909681,-35.00065606098982,72.26235327813569,219.80138332758588,
22,1.438208818435669,0.0645899772644043,15.482278247388432,15.29680510784885,99774.75,-200.0,158.0,943.0,1657,4350,1265,1662.3756190098607,4327.722956956268,1094.4132457527744,-33.58126118645564,73.6586024236256,263.8480348591876,
23,1.5040183067321777,0.06580948829650879,15.19537723032334,15.29236705234841,99774.75,-204.0,157.0,949.0,1610,4369,1363,1651.9004952078885,4335.978365565014,1148.1305966022196,-46.140480838340615,78.83714698129941,319.0887723703638,
24,1.5715293884277344,0.06751108169555664,14.812383017495286,15.271747494338138,99774.75,-202.0,157.0,954.0,1684,4426,1200,1658.320396166311,4353.982692452012,1158.5044772817757,-32.01702956145274,97.62213086540928,302.54608453366535,
25,1.6385161876678467,0.0669867992401123,14.928314404387766,15.257707057251178,99774.75,-202.0,156.0,942.0,1688,4388,1215,1664.2563169330488,4360.78615396161,1169.8035818254207,-19.953997456767816,98.01633902421068,289.1591345918566,
26,1.7039587497711182,0.06544256210327148,15.28057532988932,15.258585340456401,99774.75,-202.0,159.0,944.0,1670,4374,1293,1665.4050535464391,4363.428923169288,1194.4428654603366,-16.203262075579666,92.25300851753411,297.8934640984552,
27,1.767211675643921,0.06325292587280273,15.809545348320027,15.278305577152764,99767.0,-205.0,157.0,949.0,1640,4408,1310,1660.3240428371514,4372.343138535431,1217.5542923682692,-22.61578279040012,97.12067687335258,304.6422328651441,
28,1.8327603340148926,0.06554865837097168,15.255842374995908,15.277502180911167,99767.0,-205.0,226.0,959.0,1667,4429,1185,1661.6592342697213,4383.674510828345,1211.0434338946154,-18.317257507786973,104.69557214532689,264.2451465186328,
29,1.8962409496307373,0.06348061561584473,15.752840300912277,15.293415114596744,99767.0,18.0,501.0,888.0,1625,4544,1251,1654.3273874157771,4415.739608662676,1219.0347471156924,-28.03527301710114,144.73765147252868,250.40921996338903,
30,1.9605119228363037,0.0642709732055664,15.559123351089875,15.302125761417724,99767.0,-438.0,-34.0,837.0,1532,4651,1225,1629.861909932622,4462.791686930141,1220.2277976925538,-63.29788391576332,203.47279529413785,227.22458007599772,
31,2.026339054107666,0.0658271312713623,15.191304568288912,15.29852565253518,99767.0,563.0,-970.0,1918.0,1496,4647,1358,1603.0895279460976,4499.633349544112,1247.7822381540432,-97.63883640177332,239.09280752182246,246.36091179432472,
32,2.091198444366455,0.06485939025878906,15.417967945890311,15.302230204984037,99767.0,-76.0,149.0,986.0,1493,4673,1390,1581.0716223568784,4534.3066796352905,1276.2257905232345,-121.82208902261814,268.6427559619463,265.57899848443674,
33,2.1583878993988037,0.06718945503234863,14.883287854002477,15.289188754807142,99770.0,-4.0,-265.0,848.0,1718,4748,627,1608.4572978855026,4577.045343708232,1146.3806324185878,-68.88099092347375,305.3876643550625,45.76881218400101,
34,2.2235114574432373,0.0651235580444336,15.355426362265145,15.29112876220381,99770.0,-88.0,-435.0,1011.0,1801,4256,23,1646.9658383084022,4512.836274966586,921.7045059348703,-2.8613861529117983,176.25313523435864,-303.8078405923684,
35,2.2902140617370605,0.06670260429382324,14.991918390397862,15.282414244480501,99770.0,-228.0,-410.0,663.0,1639,3969,-292,1645.3726706467219,4404.069019973269,678.9636047478963,-4.963711494233905,-4.435159329817168,-637.3422345938062,
36,2.3557050228118896,0.0654909610748291,15.269282716089833,15.28204917482774,99770.0,-3.0,-459.0,871.0,1554,4655,1238,1627.0981365173775,4454.2552159786155,790.7708837983171,-32.37124315738969,72.63907812823804,-402.8863157806633,
37,2.4213297367095947,0.06562471389770508,15.238161671207992,15.28085970243781,99770.0,65.0,-876.0,279.0,1581,4568,1362,1617.8785092139021,4477.004172782893,905.0167070386537,-43.18313598151482,100.04039847890492,-188.50805172294685,
38,2.4869368076324463,0.06560707092285156,15.242259499374946,15.279841403037436,99766.75,564.0,-1621.0,382.0,1569,4643,1267,1608.1028073711218,4510.203338226314,977.4133656309231,-53.765200810980915,140.63938811614545,-59.30838083554998,
39,2.551865339279175,0.06492853164672852,15.401549590570264,15.282938092264825,99766.75,837.0,-702.0,2020.0,1755,4072,715,1637.4822458968974,4422.562670581052,924.9306925047385,-3.1397927900984115,-8.404759584388842,-134.208992031857,
40,2.61399507522583,0.06212973594665527,16.095352487230947,15.302247651153012,99766.75,255.0,-1111.0,-438.0,1447,4538,1392,1599.3857967175181,4445.650136464842,1018.344554003791,-64.1433913164876,29.595806517702226,29.564809973390865,
41,2.6804401874542236,0.06644511222839355,15.05001596750523,15.295995110019666,99766.75,490.0,-509.0,1351.0,1607,4276,1334,1600.9086373740147,4411.720109171873,1081.4756432030329,-55.4371745652149,-24.42851938777455,121.62071902551045,
42,2.745622158050537,0.06518197059631348,15.341665660788681,15.297079343874865,99766.75,224.0,-953.0,176.0,1966,4761,148,1673.926909899212,4481.576087337499,894.7805145624263,62.12873531229948,85.18503869344154,-176.9627772872525,
43,2.812243700027466,0.06662154197692871,15.010159932147829,15.290282275174103,99766.75,307.0,-908.0,68.0,1687,4500,1012,1676.5415279193699,4485.26086987,918.2244116499411,59.840445245474086,82.19745233689883,-124.07683508688612,
44,2.8773109912872314,0.06506729125976562,15.368704930527056,15.292055719119741,99770.5,205.0,-822.0,269.0,1657,4367,1062,1672.6332223354962,4461.608695896,946.9795293199529,47.84984119123806,37.62737882602044,-67.47625970689786,
45,2.943373918533325,0.06606292724609375,15.13708280401894,15.288577409975614,99770.5,703.0,-593.0,-400.0,1829,4040,285,1703.9065778683969,4377.2869567168,814.5836234559624,90.40359429821848,-93.77387387002614,-261.13741273384016,
46,3.0086820125579834,0.0653080940246582,15.312037733369353,15.28908665256079,99770.5,782.0,-554.0,-281.0,1746,3960,135,1712.3252622947177,4293.82956537344,678.6668987647699,94.25395622851201,-212.18675902083308,-443.1398731672075,
47,3.075951337814331,0.06726932525634766,14.865616626734905,15.279825601336281,99770.5,843.0,-261.0,-344.0,1702,4025,231,1710.2602098357743,4240.0636522987525,589.133519011816,81.75873278878585,-270.89442825421617,-531.922775720815,
48,3.1411962509155273,0.06524491310119629,15.32686538257746,15.280802651540796,99770.5,914.0,-29.0,-439.0,1583,3542,587,1684.8081678686194,4100.450921839002,588.7068152094529,34.57285741567782,-457.78753797386105,-479.3845013224389,
49,3.2054662704467773,0.06427001953125,15.559354226020893,15.286387647176955,99770.5,661.0,45.0,-152.0,1480,3483,860,1643.8465342948957,3976.960737471202,642.9654521675623,-32.61808497089368,-604.1515363779982,-347.02311596496577,
50,3.269747495651245,0.06428122520446777,15.556641878233778,15.291700679180842,99764.75,729.0,129.0,-388.0,1521,3471,1099,1619.2772274359168,3875.7685899769613,734.1723617340499,-67.57786727396117,-701.1573826859296,-170.43348147383895,
51,3.3359625339508057,0.06621503829956055,15.102309470485299,15.28794148044592,99764.75,572.0,98.0,-252.0,1405,3320,496,1576.4217819487335,3764.614871981569,686.5378893872399,-125.54170057086048,-798.9094292134829,-225.32918761093487,
52,3.4003489017486572,0.06438636779785156,15.531237965459017,15.292548353864092,99764.75,747.0,-62.0,-405.0,1614,3396,760,1583.937425558987,3690.8918975852557,701.2303115097919,-101.31480557633175,-833.5193921791933,-179.97711842240847,
53,3.4648361206054688,0.06448721885681152,15.506948783454538,15.296538755414044,99764.75,648.0,-299.0,-408.0,1662,3168,112,1599.5499404471898,3586.3135180682048,583.3842492078336,-66.9730781434702,-912.3366104640321,-344.7226918249937,
54,3.5282607078552246,0.06342458724975586,15.76675613295141,15.304991459326079,99764.75,802.0,-521.0,-742.0,1561,3052,574,1591.839952357752,3479.450814454564,581.5073993662669,-72.43192052853564,-989.590768176043,-313.20960601750943,
55,3.592744827270508,0.0644841194152832,15.507694127912565,15.308629653440983,99764.75,917.0,-612.0,-850.0,1637,3165,468,1600.871961886202,3416.5606515636514,558.8059194930136,-51.182164362922855,-988.1598323351257,-317.0934060282961,
56,3.6585495471954346,0.06580471992492676,15.196478324668032,15.306612436868155,99769.75,799.0,-535.0,-624.0,1667,3191,641,1614.0975695089617,3371.4485212509217,575.2447355944109,-25.965681969647278,-957.8984001493129,-260.40285416865754,
57,3.7236242294311523,0.06507468223571777,15.366959401779859,15.307667070559301,99769.75,997.0,-601.0,-538.0,1639,3117,838,1619.0780556071693,3320.5588170007377,627.7957884755288,-15.715621005454,-940.3105620524977,-153.6075791372994,
58,3.794623374938965,0.0709991455078125,14.084676552761659,15.284784356479886,99769.75,874.0,-728.0,-404.0,1668,2984,634,1628.8624444857355,3253.2470536005903,629.036630780423,-0.36306364280422265,-941.0859474159575,-136.49913497182757,
59,3.860429048538208,0.06580567359924316,15.196258093033197,15.283275319446933,99769.75,748.0,-717.0,-105.0,1606,3212,1214,1624.2899555885886,3244.9976428804725,746.0293046243385,-7.275229419381207,-859.5133701161963,54.93586519797452,
60,3.925994396209717,0.06556534767150879,15.25195908378515,15.282752328410341,99769.75,594.0,-849.0,5.0,1448,3349,705,1589.0319644708711,3265.7981143043785,737.8234436994708,-60.323050267831746,-741.8372391964912,36.92673317084572,
61,3.9910693168640137,0.06507492065429688,15.366903101002404,15.284124418047142,99769.75,657.0,-810.0,15.0,1420,3420,719,1555.225571576697,3296.638491443503,734.0587549595766,-106.24070162096773,-620.2614065673125,27.44889914662232,
62,4.057324409484863,0.06625509262084961,15.093179413733294,15.281006333893771,99763.5,594.0,-878.0,77.0,1392,3421,563,1522.5804572613577,3321.5107931548027,699.8470039676613,-144.8884881931958,-520.695054694466,-26.932400345934507,
63,4.1198132038116455,0.06248879432678223,16.00286916675887,15.291955456065942,99763.5,568.0,-901.0,72.0,1416,3544,1311,1501.2643658090863,3366.0086345238424,822.0776031741291,-164.51150163961285,-397.4162358618262,171.3648684162234,
64,4.185302019119263,0.06548881530761719,15.269783020241736,15.291608516574364,99763.5,562.0,-889.0,76.0,1510,3368,887,1503.011492647269,3366.406907619074,835.0620825393033,-145.39252670286234,-357.0664579009449,174.05539982830277,
65,4.251996755599976,0.06669473648071289,14.993686949931721,15.286935464942097,99763.5,549.0,-901.0,50.0,1474,3486,1652,1497.2091941178153,3390.325526095259,998.4496660314428,-139.553058806644,-285.49698434017307,401.6280876841696,
66,4.31694769859314,0.06495094299316406,15.396235280298358,15.288579943071559,99763.5,467.0,-883.0,-22.0,1425,3573,1401,1482.7673552942522,3426.8604208762076,1078.9597328251543,-147.83274776675208,-200.69730230731312,485.42047199460455,
67,4.383333206176758,0.06638550758361816,15.06352871883092,15.285171546070739,99769.25,464.0,-832.0,10.0,1400,3575,1276,1466.2138842354018,3456.488336700966,1118.3677862601235,-157.98484165920982,-135.9974759860464,496.2408592622322,
68,4.446874618530273,0.06354141235351562,15.737767905385123,15.291638697579138,99769.25,423.0,-856.0,23.0,1464,3545,1458,1465.7711073883215,3474.190669360773,1186.2942290080987,-142.8831894186116,-94.53820810904581,553.5178323966155,
69,4.511957168579102,0.06508255004882812,15.36510169392181,15.292698361702172,99769.25,417.0,-859.0,48.0,1461,3468,1555,1464.8168859106572,3472.9525354886187,1260.0353832064789,-130.0610414810341,-86.98679258377527,611.4700824854821,
70,4.577325820922852,0.06536865234375,15.297852474323063,15.292771967429454,99769.25,405.0,-865.0,51.0,1460,3444,1548,1463.8535087285259,3467.162028390895,1317.6283065651833,-118.52869753386814,-87.14634565864729,638.4278787475794,
71,4.642194032669067,0.06486821174621582,15.415871242332134,15.294492108762194,99769.25,408.0,-887.0,72.0,1559,3273,1687,1482.8828069828207,3428.329622712716,1391.5026452521467,-77.34050660846678,-138.29524768926393,688.4688202038878,
72,4.707764148712158,0.06557011604309082,15.250849935095866,15.293884257072671,99769.25,469.0,-882.0,6.0,1547,3289,1697,1495.7062455862567,3400.4636981701733,1452.6021162017175,-50.04962216832835,-166.96362627044016,712.8038244400644,
73,4.771940469741821,0.06417632102966309,15.582071143308257,15.297759991534337,99767.0,577.0,-881.0,3.0,1383,3371,926,1473.1649964690055,3394.570958536139,1347.2816929613741,-80.16859469189987,-159.44937246404734,477.4124092186212,
74,4.835279703140259,0.0633392333984375,15.78800289086967,15.304181876374372,99767.0,489.0,-860.0,-16.0,1313,3347,440,1441.1319971752046,3385.056766828912,1165.8253543690994,-122.72544376808538,-158.52544383544205,143.18784847061312,
75,4.899060010910034,0.06378030776977539,15.678820547709652,15.309059254832079,99767.0,577.0,-930.0,-3.0,1263,3291,441,1405.505597740164,3366.24541346313,1020.8602834952796,-166.31089174157952,-172.16688282006285,-98.4190695681113,
76,4.963078498840332,0.06401848793029785,15.62048764864271,15.313076353267046,99767.0,891.0,-1141.0,46.0,1587,3462,793,1441.8044781921312,3385.396330770504,975.2882267962237,-92.97918119147022,-125.03552781205502,-159.76293749038496,
77,5.027785062789917,0.06470656394958496,15.454382661689984,15.314894936513598,99767.0,920.0,-1018.0,-263.0,1290,3159,214,1411.443582553705,3340.1170646164037,823.030581436979,-130.60215298711051,-182.50828560944683,-379.091435196312,
78,5.092807054519653,0.06502199172973633,15.379412001965372,15.31571865279645,99767.0,1008.0,-966.0,-233.0,1512,3551,1716,1431.5548660429642,3382.293651693123,1001.6244651495833,-86.61196622143534,-99.39234609953849,-66.51539981195731,
79,5.156747341156006,0.06394028663635254,15.639592072636427,15.319734470894263,99767.0,1093.0,-821.0,-259.0,1590,3120,138,1463.2438928343715,3329.834921354499,828.8995721196667,-28.390424379646127,-171.49642580403665,-329.9985466085275,
80,5.221895217895508,0.06514787673950195,15.349694419030191,15.320108248407376,99767.0,767.0,-766.0,-250.0,1522,3316,-378,1474.9951142674975,3327.0679370835996,587.5196576957334,-7.513616136797424,-158.59401952568962,-667.5094844775782,
81,5.287086725234985,0.06519150733947754,15.339421357334338,15.32034638535269,99767.0,733.0,-564.0,60.0,1473,3140,-253,1474.5960914139982,3289.65434966688,419.4157261565867,-7.374332491220722,-200.124895760573,-858.620239800166,
82,5.351779937744141,0.06469321250915527,15.457572150377935,15.322005193390723,99767.0,683.0,-501.0,116.0,1469,3145,-255,1473.4768731311985,3260.723479733504,284.5325809252694,-8.366938977938485,-224.83250712135163,-981.2548107484487,
83,5.414338111877441,0.06255817413330078,15.985121270789822,15.329666948194975,99767.0,801.0,-425.0,242.0,1278,3980,1719,1434.381498504959,3404.5787837868033,571.4260647402155,-70.0246755328846,27.60519166461671,-424.5266166154748,
84,5.478668689727783,0.0643305778503418,15.544707251447251,15.332191953402036,99767.0,775.0,-439.0,199.0,1399,3354,440,1427.3051988039672,3394.463027029443,545.1408517921724,-74.02210870713817,9.120024756153235,-422.9335489858553,
