Index,Time,Difference,Hz,AveHz,0x6103 Range,0x6103 Smoothed Range,0x6103 Velocity,
0,0.0,0.0,0,0,1322,264.40000000000003,0,
1,0.015887737274169922,0.015887737274169922,62.94162489870644,62.94162489870644,1363,484.12000000000006,2765.9067645487567,
2,0.030872821807861328,0.014985084533691406,66.73302361102272,64.78189821607846,1369,661.096,4574.754128955876,
3,0.04562568664550781,0.014752864837646484,67.78344484307831,65.75243509886711,1317,792.2768000000001,5438.18060741888,
4,0.061174631118774414,0.015548944473266602,64.3130472116166,65.3865814447454,1374,908.6214400000001,5847.040150962812,
5,0.0743558406829834,0.013181209564208984,75.86557175415115,67.24421315223282,1341,995.097152,5989.73798751571,
6,0.08844590187072754,0.01409006118774414,70.97201258925853,67.83807811434379,1345,1065.0777216000001,5785.122763343506,
7,0.10316085815429688,0.014714956283569336,67.95806801795233,67.85519358059386,1345,1121.06217728,5389.017300084699,
8,0.11927199363708496,0.016111135482788086,62.06887162412135,67.07358329518674,1359,1168.649741824,4901.955126984985,
9,0.13617467880249023,0.016902685165405273,59.16219761619296,66.09158236424948,1355,1205.9197934592003,4362.559733589474,
10,0.152724027633667,0.016549348831176758,60.425338193133854,65.47758172005913,1355,1235.7358347673603,3850.3766627967825,
11,0.16817164421081543,0.015447616577148438,64.73490554389431,65.40936227162469,1331,1254.7886678138882,3326.9779997595406,
12,0.18523597717285156,0.017064332962036133,58.60176323473936,64.78223174109579,1327,1269.2309342511107,2830.85085547306,
13,0.19940686225891113,0.01417088508605957,70.56722243720242,65.19334316148417,1359,1287.1847474008887,2518.0708296057182,
14,0.21330785751342773,0.013900995254516602,71.93729525769659,65.63283773603465,1322,1294.1477979207111,2114.6372679123197,
15,0.22708678245544434,0.013778924942016602,72.5746024605056,66.05404259027308,1378,1310.9182383365692,1935.1314235835546,
16,0.24164581298828125,0.014559030532836914,68.68589208220749,66.21261010955703,1359,1320.5345906692553,1680.2066865763165,
17,0.2566847801208496,0.01503896713256836,66.49392815244617,66.22909232092468,1377,1331.8276725354044,1494.3496241065359,
18,0.2713737487792969,0.014688968658447266,68.07829897743872,66.32918652216084,1341,1333.6621380283236,1220.4571573433784,
19,0.28577375411987305,0.014400005340576172,69.44441868936057,66.48616160891423,1317,1330.329710422659,930.0820262947511,
20,0.30206894874572754,0.016295194625854492,61.367784979589445,66.21004933822374,1336,1331.4637683381272,757.9845454979724,
21,0.31824684143066406,0.016177892684936523,61.81274777098224,65.98651507614487,1317,1328.5710146705019,570.6258258342759,
22,0.3348057270050049,0.01655888557434082,60.39053748578175,65.70974814797935,1322,1327.2568117364017,440.6275763562804,
23,0.34923291206359863,0.01442718505859375,69.31359069275516,65.85862673736627,1345,1330.8054493891213,401.6958246405263,
24,0.36589884757995605,0.016665935516357422,60.002632256587795,65.59189830395826,1350,1334.6443595112971,367.4256021778222,
25,0.3789687156677246,0.013069868087768555,76.51186632371987,65.96850601757774,1317,1331.115487609038,239.9403666904204,
26,0.393535852432251,0.014567136764526367,68.64767017463461,66.06767805094968,1327,1330.2923900872304,180.6515479126157,
27,0.4097588062286377,0.01622295379638672,61.64105578743166,65.89242156502796,1303,1324.8339120697842,77.22796873251886,
28,0.4248228073120117,0.015064001083374023,66.38342592152952,65.90983233024812,1345,1328.8671296558275,115.3301351557181,
29,0.44135403633117676,0.01653122901916504,60.49157015734745,65.70688747080905,1317,1326.493703724662,63.54965587890189,
30,0.4556717872619629,0.014317750930786133,69.84337168834196,65.83686073755798,1317,1324.5949629797299,24.31683358550195,
31,0.4711167812347412,0.01544499397277832,64.74589771692317,65.80109483417822,1331,1325.875970383784,36.04146173990456,
32,0.4863598346710205,0.015243053436279297,65.6036537679482,65.79490681348138,1327,1326.1007763070274,31.782787382611996,
33,0.5023868083953857,0.016026973724365234,62.39481122251644,65.6864381160831,1336,1328.0806210456221,50.132637648991256,
34,0.5181758403778076,0.015789031982421875,63.33510509784972,65.61479202737479,1294,1321.2644968364978,-46.233878509785114,
35,0.5341267585754395,0.015950918197631836,62.69231574069922,65.52751652687822,1308,1318.6115974691984,-70.25038376043474,
36,0.5498998165130615,0.01577305793762207,63.39924724518947,65.46647028958394,1350,1324.8892779753587,23.399736698925103,
37,0.5645897388458252,0.014689922332763672,68.07387931314312,65.53431182727134,1331,1326.111422380287,35.35901150400396,
38,0.579169750213623,0.014580011367797852,68.58705214789136,65.61116147033567,1313,1323.4891379042297,-7.683743217986468,
39,0.5947189331054688,0.015549182891845703,64.31206108742985,65.57719593077702,1289,1316.5913103233838,-94.86969632437243,
40,0.6105468273162842,0.01582789421081543,63.1795984153524,65.51504030546478,1350,1323.2730482587071,8.534146834572795,
41,0.625108003616333,0.014561176300048828,68.6757703769198,65.58866589902792,1331,1324.8184386069659,28.05349200760285,
42,0.6409528255462646,0.01584482192993164,63.11210087574107,65.52744340303778,1345,1328.8547508855727,73.39082314476758,
43,0.6561877727508545,0.015234947204589844,65.63856025039124,65.5300232427929,1341,1331.2838007084583,90.60052514595039,
44,0.6716957092285156,0.015507936477661133,64.4831116919056,65.50585242019298,1284,1321.8270405667668,-49.47984397529147,
45,0.6859207153320312,0.014225006103515625,70.29873960847412,65.60524998609644,1341,1325.6616324534134,14.32952012859488,
46,0.7018907070159912,0.01596999168395996,62.61744024603257,65.53726889413281,1350,1330.5293059627309,72.4238671242522,
47,0.7178440093994141,0.01595330238342285,62.68294651263581,65.47383468355844,1303,1325.0234447701846,-11.08562682827317,
48,0.7312986850738525,0.013454675674438477,74.32360498290008,65.63665569171995,1359,1331.8187558161476,92.14190132059963,
49,0.7454710006713867,0.01417231559753418,70.56009959120502,65.73025638270245,1336,1332.6550046529183,85.5146812975932,
50,0.760235071182251,0.014764070510864258,67.73199838514331,65.76913101660041,1341,1334.3240037223347,91.02067349297918,
51,0.7758128643035889,0.01557779312133789,64.19394533043558,65.73750236248058,1359,1339.2592029778677,136.1785210352818,
52,0.7903509140014648,0.014538049697875977,68.78501730160552,65.7935596439427,1364,1344.2073623822941,177.01466287713993,
53,0.804121732711792,0.013770818710327148,72.6173237071279,65.91041858956436,1377,1350.7658899058354,236.86427354553203,
54,0.8207788467407227,0.016657114028930664,60.03440921777714,65.79116922229619,1313,1343.2127119246684,98.80130327320914,
55,0.8351178169250488,0.014338970184326172,69.74001529713013,65.85897089648155,1350,1344.5701695397347,97.97486558655355,
56,0.8491647243499756,0.014046907424926758,71.1900470152927,65.94715771179409,1322,1340.0561356317878,14.109035242169853,
57,0.8645787239074707,0.015413999557495117,64.87608853691358,65.92806233119875,1359,1343.8449085054303,60.44738107307373,
58,0.8839707374572754,0.019392013549804688,51.56762073374644,65.61303167889456,1341,1343.2759268043444,42.489698345250744,
59,0.8984189033508301,0.014448165893554688,69.21293729372937,65.67092453191701,1331,1340.8207414434755,0.005640590940551249,
60,0.9132187366485596,0.014799833297729492,67.56832863471607,65.70167430006445,1350,1342.6565931547805,24.81359882356406,
61,0.929602861404419,0.016384124755859375,61.03469150174622,65.61941935919049,1378,1349.7252745238243,106.13783639559733,
62,0.9444758892059326,0.014873027801513672,67.23580520021801,65.64487321336117,1303,1340.3802196190595,-40.75418911594326,
63,0.9597568511962891,0.015280961990356445,65.44090618320253,65.64162571121388,1313,1334.904175695248,-104.27480662740525,
64,0.9752357006072998,0.015478849411010742,64.60428507616716,65.62516113811856,1364,1340.7233405561983,-8.231248185513067,
65,0.9919717311859131,0.01673603057861328,59.75132486181549,65.52606083067688,1350,1342.5786724449588,15.586709133952112,
66,1.0085809230804443,0.01660919189453125,60.2076251722554,65.43847745842784,1294,1332.862937955967,-104.52289277011232,
67,1.0235159397125244,0.014935016632080078,66.95673829060375,65.46063173067762,1322,1330.6903503647738,-112.71218996747682,
68,1.0390889644622803,0.01557302474975586,64.2136011512906,65.44194224523348,1359,1336.3522802918192,-17.45516995761261,
69,1.0541067123413086,0.01501774787902832,66.58788042356602,65.45826830638616,1350,1339.0818242334553,22.386773153217533,
70,1.0693137645721436,0.015207052230834961,65.75896398726934,65.46254459560667,1317,1334.6654593867645,-40.173696859063014,
71,1.084925889968872,0.015612125396728516,64.05277786261874,65.44225799795144,1341,1335.9323675094117,-15.90916057679625,
72,1.0994467735290527,0.014520883560180664,68.86633281339792,65.4874812801453,1336,1335.9458940075294,-12.541024397202351,
73,1.113872766494751,0.014425992965698242,69.31931842596724,65.5371081831221,1327,1334.1567152060236,-34.83775053027665,
74,1.1280109882354736,0.014138221740722656,70.73025295109612,65.60219782588892,1322,1331.725372164819,-62.26410208727945,
75,1.1414299011230469,0.013418912887573242,74.52168505587832,65.70705737269358,1303,1325.9802977318554,-135.4378071730008,
76,1.1557986736297607,0.014368772506713867,69.59536728226061,65.75539644921346,1331,1326.9842381854844,-94.37632481843534,
77,1.1721038818359375,0.016305208206176758,61.3300969454152,65.69383583935429,1345,1330.5873905483875,-31.304723109558793,
78,1.1887028217315674,0.016598939895629883,60.244811192025395,65.6177461464914,1374,1339.26991243871,79.57159990297431,
79,1.2034776210784912,0.014774799346923828,67.68281426496692,65.64309848088783,1331,1337.6159299509682,41.26804201931203,
80,1.2204816341400146,0.017004013061523438,58.80964666292765,65.54789335799406,1359,1341.8927439607746,83.31801776740494,
81,1.2351009845733643,0.01461935043334961,68.40249192732966,65.58168199337926,1355,1344.5141951686198,102.51717323042809,
82,1.2511587142944336,0.016057729721069336,62.27530400439489,65.5392469901329,1308,1337.211356134896,-8.943565599719548,
83,1.2658817768096924,0.014723062515258789,67.92065162826097,65.56694433912993,1313,1332.369084907917,-72.93289589921329,
84,1.2813167572021484,0.015434980392456055,64.78790219187816,65.55755985227285,1378,1341.4952679263338,59.906933837101064,
85,1.2955126762390137,0.014195919036865234,70.4427798864667,65.61109092869891,1374,1347.9962143410671,139.5144945390359,
86,1.3099887371063232,0.01447606086730957,69.07956585470296,65.64941939116835,1364,1351.1969714728536,155.8329782452603,
87,1.3243157863616943,0.014327049255371094,69.7980430007322,65.69430108434783,1369,1354.7575771782829,174.37104462344854,
88,1.3398516178131104,0.015535831451416016,64.36733065283447,65.67891461267371,1350,1353.8060617426263,127.24753396512233,
89,1.3560400009155273,0.016188383102416992,61.7726917922208,65.63228218925094,1322,1347.444849394101,23.208185206034443,
90,1.3718416690826416,0.015801668167114258,63.28445765499344,65.6052385842628,1331,1344.155879515281,-23.06158684012068,
91,1.3862879276275635,0.014446258544921875,69.22207552152099,65.64292899508523,1294,1334.1247036122247,-157.32503265830064,
92,1.4021987915039062,0.015910863876342773,62.85013860792687,65.61123897512908,1336,1334.49976288978,-121.1455206105334,
93,1.4165027141571045,0.014303922653198242,69.9108925743812,65.65465711468121,1364,1340.399810311824,-14.420900187171398,
94,1.4303066730499268,0.013803958892822266,72.44298594079243,65.72017160456805,1331,1338.5198482494593,-38.77473320035911,
95,1.4444177150726318,0.014111042022705078,70.86648869665123,65.77044784806102,1355,1341.8158785995674,15.695832949664293,
96,1.4626197814941406,0.01820206642150879,54.93881721134324,65.63564995813957,1350,1343.452702879654,30.541704345884213,
97,1.4764988422393799,0.013879060745239258,72.05098517513271,65.6959539859048,1350,1344.7621623037232,43.30293178691758,
98,1.4920308589935303,0.01553201675415039,64.38313940994075,65.6822876077156,1303,1336.4097298429788,-72.90881927691103,
99,1.507300853729248,0.015269994735717773,65.4879073180633,65.68031840163945,1350,1339.127783874383,-22.727121322709742,
100,1.5226969718933105,0.0153961181640625,64.95143706640238,65.67294862067054,1280,1327.3022270995066,-171.79907838588008,
101,1.5386786460876465,0.015981674194335938,62.571667263396584,65.64073678204983,1317,1325.2417816796053,-163.22436375439443,
102,1.5571508407592773,0.01847219467163086,54.13541908670849,65.50425130956748,1355,1331.1934253436843,-66.14054620158126,
103,1.5729928016662598,0.015841960906982422,63.123498780964994,65.48027422051318,1355,1335.9547402749474,7.1977344906101735,
104,1.5880959033966064,0.01510310173034668,66.21156487284323,65.48722893722328,1289,1326.563792219958,-118.59968567959811,
105,1.602085828781128,0.013989925384521484,71.48000954361089,65.53955981240053,1345,1330.2510337759666,-42.1669362210608,
106,1.6172816753387451,0.015195846557617188,65.80745575498933,65.54207694080127,1308,1325.8008270207733,-92.30490580543517,
107,1.631927728652954,0.014646053314208984,68.27777958652125,65.56662903713344,1313,1323.2406616166186,-108.80440647833129,
108,1.6463408470153809,0.014413118362426758,69.38123831737052,65.60002456100818,1350,1328.592529293295,-12.779683838961276,
109,1.6608588695526123,0.014518022537231445,68.87990409406665,65.62869488685783,1308,1324.474023434636,-66.96020478222698,
110,1.6763420104980469,0.01548314094543457,64.58637840501378,65.61906777443264,1341,1327.779218747709,-10.874044787259429,
111,1.6927437782287598,0.01640176773071289,60.96903799749978,65.57401151174062,1345,1331.2233749981672,33.298142830895706,
112,1.7103350162506104,0.017591238021850586,56.846482252009274,65.48424661592087,1364,1337.7786999985337,101.16794752261468,
113,1.7249159812927246,0.014580965042114258,68.58256618212143,65.51043716072074,1317,1333.6229599988271,23.932095304978162,
114,1.7399396896362305,0.01502370834350586,66.56146253213572,65.51951235955426,1308,1328.4983679990619,-49.074391432988804,
115,1.7544336318969727,0.014493942260742188,68.99434136070536,65.54821904300638,1280,1318.7986943992496,-173.10403143296517,
116,1.7675189971923828,0.013085365295410156,76.42125209532833,65.62871470363844,1284,1311.8389555193996,-244.85761703730657,
117,1.7824158668518066,0.014896869659423828,67.12819692071317,65.6412469030874,1280,1305.4711644155198,-281.3777606640881,
118,1.7976398468017578,0.015223979949951172,65.68584583581296,65.64162460569497,1233,1290.976931532416,-415.51539786485426,
119,1.8117740154266357,0.01413416862487793,70.7505355666886,65.68148068509413,1266,1285.981545225933,-403.09756960112077,
120,1.82781982421875,0.016045808792114258,62.32157025898575,65.65198517380706,1233,1275.3852361807462,-454.5537794100021,
121,1.8429687023162842,0.01514887809753418,66.01148900675176,65.65494023198794,1289,1278.108188944597,-327.69379024063346,
122,1.8580827713012695,0.015114068984985352,66.16351963150505,65.6590771328017,1303,1283.0865511556776,-196.27783901539203,
123,1.8724370002746582,0.014354228973388672,69.66588047702886,65.68979355885286,1294,1285.2692409245421,-126.61047030108374,
124,1.8882498741149902,0.01581287384033203,63.23961160364272,65.66927486655756,1317,1291.6153927396338,-21.022741048037773,
125,1.902214765548706,0.01396489143371582,71.60814709849248,65.71287441559889,1289,1291.092314191707,-24.309529959232467,
126,1.9164137840270996,0.014199018478393555,70.42740324070188,65.74780511921963,1275,1287.8738513533656,-64.78121999360184,
127,1.931121826171875,0.01470804214477539,67.9900145890744,65.76488250446435,1299,1290.0990810826925,-21.566295642686082,
128,1.9457437992095947,0.014621973037719727,68.39022322229287,65.78461154649266,1266,1285.279264866154,-83.17869790204594,
129,1.959446668624878,0.013702869415283203,72.97741587500435,65.83491251156687,1270,1282.2234118929234,-111.14460897770161,
130,1.9793448448181152,0.019898176193237305,50.25586215986293,65.6782977156999,1252,1276.1787295143388,-149.6718320658217,
131,1.9937207698822021,0.014375925064086914,69.56074099872299,65.70629246528844,1270,1274.942983611471,-136.92934579058206,
132,2.007844924926758,0.014124155044555664,70.80069546428993,65.74212896686485,1219,1263.7543868891769,-267.9755624740444,
133,2.0210187435150146,0.013173818588256836,75.9081350104063,65.80839511101344,1247,1260.4035095113416,-265.2522204592437,
134,2.0350847244262695,0.014065980911254883,71.09351322948625,65.84492448479129,1223,1252.9228076090733,-318.56765229834537,
135,2.0502820014953613,0.015197277069091797,65.80126133475574,65.84460084102506,1252,1252.7382460872586,-257.2829980245296,
136,2.06547474861145,0.015192747116088867,65.82088100058064,65.8444263680436,1195,1241.190596869807,-357.84168741529015,
137,2.078455686569214,0.012980937957763672,77.03603570510231,65.91432325706108,1242,1241.3524774958457,-283.77922159473525,
138,2.0933358669281006,0.014880180358886719,67.20348650900468,65.92348709073156,1209,1234.8819819966766,-313.9913486727861,
139,2.1074728965759277,0.014137029647827148,70.7362172189898,65.95577111612553,1209,1229.7055855973413,-324.42481896122484,
140,2.1214678287506104,0.013994932174682617,71.4544370432205,65.99204480157013,1205,1224.764468477873,-330.1528035962259,
141,2.135910749435425,0.014442920684814453,69.23807322790452,66.01399428195671,1209,1221.6115747822985,-307.7822997917772,
142,2.150594711303711,0.014683961868286133,68.10151163357094,66.0282475603775,1223,1221.889259825839,-242.44368558879353,
143,2.1648976802825928,0.014302968978881836,69.91555399976663,66.05393007827217,1195,1216.5114078606712,-269.1540483657228,
144,2.1787989139556885,0.013901233673095703,71.93606146880252,66.0914594172267,1228,1218.8091262885368,-182.26547587958916,
145,2.193596839904785,0.01479792594909668,67.57703771730549,66.10148107538933,1181,1211.2473010308295,-248.01353083402415,
146,2.209455728530884,0.015858888626098633,63.0561209916262,66.07962228647081,1209,1210.7978408246636,-204.07906809540293,
147,2.223932981491089,0.014477252960205078,69.07387767201344,66.09911414751372,1177,1204.0382726597309,-256.64517138436213,
148,2.2393579483032227,0.015424966812133789,64.82996120376525,66.09037206943206,1148,1192.8306181277849,-350.63449880574217,
149,2.253788948059082,0.014430999755859375,69.29526830557758,66.11089300456275,1177,1189.664494502228,-324.38707626891096,
150,2.267648696899414,0.013859748840332031,72.1513796187986,66.14781213910999,1181,1187.9315956017824,-284.5158702965395,
151,2.2820558547973633,0.014407157897949219,69.40994241080294,66.16840673840919,1172,1184.7452764814261,-271.84514156650584,
152,2.29697585105896,0.01491999626159668,67.02414548011313,66.17396518553925,1167,1181.196221185141,-265.05059295224083,
153,2.3126657009124756,0.015689849853515625,63.73547289083394,66.15742168858775,1191,1183.1569769481127,-187.04653520650612,
154,2.3273117542266846,0.014646053314208984,68.27777958652125,66.17076535634602,1172,1180.9255815584902,-180.10817268181052,
155,2.343097686767578,0.015785932540893555,63.347540438899884,66.15174470759277,1181,1180.9404652467922,-143.89796913613017,
156,2.358773946762085,0.015676259994506836,63.79072561634044,66.13605352651233,1200,1184.752372197434,-66.48551323622249,
157,2.373522996902466,0.01474905014038086,67.8009763667518,66.14639934177623,1191,1186.0018977579473,-36.244599989374436,
158,2.389676809310913,0.016153812408447266,61.90489122413437,66.11772746188254,1172,1183.2015182063578,-63.66711829698667,
159,2.405601739883423,0.015924930572509766,62.794622271461506,66.09572871680133,1200,1186.5612145650862,-8.739521878959152,
160,2.4194748401641846,0.013873100280761719,72.08194129373754,66.13005324293535,1162,1181.6489716520691,-77.80841855850203,
161,2.433854818344116,0.01437997817993164,69.54113472825546,66.15020698298555,1153,1175.9191773216553,-141.93801474610203,
162,2.4486489295959473,0.014794111251831055,67.59446261945818,66.15893280656272,1139,1168.5353418573243,-213.37168985327213,
