Index,Time,Difference,Hz,AveHz,0x6103 Range,0x6103 Smoothed Range,0x6103 Velocity,
0,9.5367431640625e-07,9.5367431640625e-07,1048576.0,0.0,1364,682.0,357564416.0,
1,0.015119791030883789,0.015118837356567383,66.14265213757432,66.13848021823802,1355,1018.5,178793336.50122213,
2,0.02955484390258789,0.014435052871704102,69.27581137996532,67.67080234265339,1359,1188.75,89402565.3540548,
3,0.04582977294921875,0.01627492904663086,61.444200287129,65.45963043116365,1345,1266.875,44703682.84110111,
4,0.06129574775695801,0.015465974807739258,64.65806471504108,65.25738157009332,1350,1308.4375,22353185.095957916,
5,0.07520794868469238,0.013912200927734375,71.87935289278859,66.48233447986178,1355,1331.71875,11177429.268571226,
6,0.09162092208862305,0.016412973403930664,60.92741244316613,65.48722566005527,1374,1352.859375,5589358.656074953,
7,0.10702681541442871,0.015405893325805664,64.91022486342604,65.40416972040731,1369,1360.9296875,2794941.250937023,
8,0.12299394607543945,0.015967130661010742,62.62866016634065,65.04385179326735,1378,1369.46484375,1397737.8981686356,
9,0.14020204544067383,0.017208099365234375,58.11217025049878,64.19307201768557,1382,1375.732421875,699051.060367847,
10,0.1567399501800537,0.016537904739379883,60.467152021913066,63.79994371895987,1359,1367.3662109375,349272.58970962086,
11,0.17165493965148926,0.014914989471435547,67.04664471370567,64.08204752122649,1374,1370.68310546875,174747.48817940522,
12,0.18650293350219727,0.014847993850708008,67.34916582365881,64.34215148609779,1369,1369.841552734375,87345.40515237422,
13,0.2014598846435547,0.014956951141357422,66.85854560525392,64.52897569658124,1355,1362.4207763671875,43424.631418601115,
14,0.21789789199829102,0.016438007354736328,60.834624198648214,64.25027737354064,1350,1356.2103881835938,21523.41239366223,
15,0.23391199111938477,0.01601409912109375,62.44497379704621,64.12668255362868,1369,1362.6051940917969,10961.367940518585,
16,0.24992680549621582,0.016014814376831055,62.4421848714475,64.01874328058923,1364,1363.3025970458984,5502.457652354244,
17,0.26390695571899414,0.01398015022277832,71.52998959701212,64.41664242492136,1364,1363.6512985229492,2763.7001326900745,
18,0.27991795539855957,0.01601099967956543,62.45706202069839,64.30455657755432,1350,1356.8256492614746,1168.6950667173103,
19,0.29517698287963867,0.015259027481079102,65.53497601599975,64.36816249913171,1359,1357.9128246307373,619.9715392335634,
20,0.31029510498046875,0.015118122100830078,66.14578142248857,64.45477121290354,1363,1360.4564123153687,394.1095671250611,
21,0.32564878463745117,0.015353679656982422,65.13096680021118,64.48665246326517,1359,1359.7282061576843,173.34039802260696,
22,0.34214186668395996,0.01649308204650879,60.63148156179077,64.30081244725783,1364,1361.8641030788422,151.42149640783703,
23,0.35875678062438965,0.016614913940429688,60.186890138904836,64.11028652885724,1359,1360.432051539421,32.61538386572543,
24,0.3780539035797119,0.019297122955322266,51.82119647137315,63.483010683791676,1363,1361.7160257697105,49.5762323588678,
25,0.39194703102111816,0.01389312744140625,71.9780340472268,63.784129031080724,1363,1362.3580128848553,47.892601395318025,
26,0.4041788578033447,0.012231826782226562,81.75393731482926,64.3279565420773,1372,1367.1790064424276,221.0139032481424,
27,0.4203000068664551,0.01612114906311035,62.030317819483265,64.23982764430195,1368,1367.5895032212138,123.23857445006172,
28,0.4351959228515625,0.014895915985107422,67.13249463811262,64.33883804915676,1369,1368.294751610607,85.29182908476548,
29,0.45015382766723633,0.014957904815673828,66.85428289075202,64.42242233123349,1374,1371.1473758053035,138.00098698900598,
30,0.464277982711792,0.014124155044555664,70.80069546428993,64.61646064879838,1341,1356.0736879026517,-464.61329986519513,
31,0.4796428680419922,0.015364885330200195,65.08346652184034,64.63142072048069,1336,1346.0368439513259,-558.9229485781239,
32,0.4940979480743408,0.014455080032348633,69.1798314338023,64.76448672720527,1355,1350.518421975663,-124.44406814852636,
33,0.5087800025939941,0.01468205451965332,68.11035871453858,64.86103980453407,1345,1347.7592109878315,-156.18745914941192,
34,0.5237889289855957,0.015008926391601562,66.62701741009023,64.91164306555056,1345,1346.3796054939157,-124.05322920579579,
35,0.5402450561523438,0.016456127166748047,60.767639303410505,64.78541469545692,1364,1355.1898027469579,205.6608298294833,
36,0.5543639659881592,0.01411890983581543,70.82699809182864,64.93928575575733,1369,1362.094901373479,347.36411853698974,
37,0.569227933883667,0.014863967895507812,67.27678686000256,65.00032376759937,1359,1360.5474506867395,121.62830425442702,
38,0.5838589668273926,0.014631032943725586,68.34787426466994,65.08421067246196,1374,1367.2737253433697,290.6774393777142,
39,0.5998530387878418,0.01599407196044922,62.52316498718025,65.01592469850546,1372,1369.6368626716849,219.21413222166282,
40,0.6151859760284424,0.015332937240600586,65.21907605230831,65.02098805670865,1331,1350.3184313358424,-520.3580551409705,
41,0.6310410499572754,0.015855073928833008,63.07129216102013,64.97200142966278,1364,1357.1592156679212,-44.45047396095026,
42,0.6484689712524414,0.017427921295166016,57.37918958111029,64.767940891423,1350,1353.5796078339606,-124.92273524590179,
43,0.663780927658081,0.015311956405639648,65.30844090123476,64.78040902999498,1359,1356.2898039169804,26.03797273637769,
44,0.6793091297149658,0.015528202056884766,64.39895593428527,64.77168946406204,1359,1357.6449019584902,56.652435899101505,
45,0.6960639953613281,0.016754865646362305,59.68415510494486,64.64922808805879,1341,1349.322450979245,-220.03300959973177,
46,0.715609073638916,0.01954507827758789,51.16377564712484,64.28090656548999,1364,1356.6612254896227,77.7232014870321,
47,0.7352948188781738,0.019685745239257812,50.79817847107839,63.91993904119583,1377,1366.8306127448113,297.15477510880794,
48,0.7546749114990234,0.01938009262084961,51.59934059985729,63.603545405606226,1336,1351.4153063724057,-249.1324344260513,
49,0.7681338787078857,0.013458967208862305,74.29990611326637,63.790963213893406,1364,1357.7076531862028,109.1941715355945,
50,0.7824728488922119,0.014338970184326172,69.74001529713013,63.89998077350241,1368,1362.8538265931015,234.04419182719693,
51,0.7976839542388916,0.015211105346679688,65.7414420062696,63.93509575939952,1364,1363.4269132965508,135.8598690532845,
52,0.8142409324645996,0.016556978225708008,60.39749442004464,63.8631612913427,1396,1379.7134566482755,559.763140130447,
53,0.829901933670044,0.015661001205444336,63.85287804283953,63.86296723712898,1345,1362.3567283241377,-274.2569583867096,
54,0.8472249507904053,0.017323017120361328,57.726664648077296,63.737499644718376,1364,1363.1783641620689,-113.41333095380875,
55,0.8636689186096191,0.016443967819213867,60.812573400414664,63.68181002570056,1369,1366.0891820810343,31.800498699259947,
56,0.879457950592041,0.015789031982421875,63.33510509784972,63.675585583485194,1345,1355.5445910405172,-318.02114153286954,
57,0.8985347747802734,0.019076824188232422,52.41962656535107,63.43660991188539,1322,1338.7722955202585,-598.6093046742704,
58,0.9173917770385742,0.01885700225830078,53.03069842714813,63.22271623932512,1327,1332.8861477601292,-455.37791571965863,
59,0.9330317974090576,0.0156400203704834,63.93853564840927,63.2347152196072,1350,1341.4430738800647,45.869705020320794,
60,0.9483058452606201,0.0152740478515625,65.47052947052947,63.27072673849266,1386,1363.7215369400324,752.226238673017,
61,0.9646787643432617,0.0163729190826416,61.076463821298034,63.23348481867728,1327,1345.3607684700162,-184.59228625857804,
62,0.9803738594055176,0.01569509506225586,63.71417286951238,63.24118029584731,1350,1347.6803842350082,-18.39994320851507,
63,0.9974589347839355,0.01708507537841797,58.530616801562935,63.1604949367131,1374,1360.840192117504,375.9258645720198,
64,1.0143728256225586,0.016913890838623047,59.12300188886696,63.093172828955474,1322,1341.420096058752,-386.1242556957778,
65,1.0301599502563477,0.015787124633789062,63.342757037574,63.09699768839318,1327,1334.2100480293761,-421.41428812488766,
66,1.0461859703063965,0.016026020050048828,62.39852420482609,63.0862981088062,1369,1351.605024014688,332.00327096848366,
67,1.061978816986084,0.0157928466796875,63.31980676328502,63.089770651120205,1364,1357.802512007344,362.2135065406157,
68,1.0775117874145508,0.015532970428466797,64.37918649270914,63.10835834396156,1369,1363.401256003672,361.3280452025771,
69,1.093122959136963,0.01561117172241211,64.05669079690888,63.12190172501412,1322,1342.7006280018359,-482.34284100643566,
70,1.1083688735961914,0.015245914459228516,65.59134269539925,63.15586955530374,1396,1369.350314000918,632.8229230420696,
71,1.1238489151000977,0.01548004150390625,64.59931000492854,63.17575169227819,ranging-error,1369.350314000918,632.8229230420696,
72,1.1328167915344238,0.008967876434326172,111.50911894507364,63.55837990578733,1372,1370.675157000459,390.2774993307194,
73,1.1482717990875244,0.015455007553100586,64.70394767289388,63.57379851879106,1355,1362.8375785002295,-58.422384915163576,
74,1.1644558906555176,0.016184091567993164,61.789072052562574,63.54899364916478,1341,1351.9187892501147,-366.5421203086245,
75,1.180755853652954,0.016299962997436523,61.34983252153817,63.51863492183362,1369,1360.4593946250575,78.71129453833078,
76,1.1963157653808594,0.015559911727905273,64.26771677673413,63.52837787421837,1331,1345.7296973125287,-433.9663602751442,
77,1.2126209735870361,0.016305208206176758,61.3300969454152,63.49881923304315,1374,1359.8648486562643,216.47192098713543,
78,1.2281439304351807,0.015522956848144531,64.42071634822142,63.51047142525182,1350,1354.9324243281321,-50.63919378226552,
79,1.243988037109375,0.015844106674194336,63.114949966142504,63.50543384932414,1363,1358.966212164066,101.97656182836954,
80,1.2592289447784424,0.015240907669067383,65.61289010559248,63.530941161835955,1374,1366.483106082033,297.59084820166265,
81,1.2747981548309326,0.015569210052490234,64.22933447673884,63.53947069427823,1386,1376.2415530410165,462.18470095186575,
82,1.2906990051269531,0.015900850296020508,62.88971856116834,63.531466030637006,1400,1388.1207765205081,604.6328611511594,
83,1.30718994140625,0.016490936279296875,60.63937080730974,63.49498062286968,1378,1383.060388260254,148.8870505043283,
84,1.3239238262176514,0.016733884811401367,59.75898670694003,63.44775910558355,1429,1406.030194130127,760.7696870715301,
85,1.340052843093872,0.016129016876220703,62.000059127864006,63.430334436479875,1405,1405.5150970650634,364.416819290498,
86,1.354245901107788,0.014193058013916016,70.4569796741139,63.503976589222866,1415,1410.2575485325317,349.2778129696918,
87,1.368741750717163,0.014495849609375,68.98526315789474,63.5620269158997,1485,1447.6287742662657,1463.670827372211,
88,1.3838069438934326,0.015065193176269531,66.37817307083624,63.592685662066536,1433,1440.3143871331329,489.0775861710099,
89,1.3986139297485352,0.014806985855102539,67.5356895580066,63.63442985013157,1415,1427.6571935665665,-182.86735460810576,
90,1.4141778945922852,0.01556396484375,64.25098039215686,63.6412153974076,1499,1463.3285967832833,1054.5276370149409,
91,1.4309968948364258,0.016819000244140625,59.45656611476525,63.59203177055252,1475,1469.1642983916418,700.7492077591743,
92,1.4469900131225586,0.015993118286132812,62.52689326177698,63.58025913493827,1466,1467.5821491958209,300.91116693393803,
93,1.464766025543213,0.017776012420654297,56.25558625499611,63.491368845417256,1452,1459.7910745979104,-68.69015106396085,
94,1.4803869724273682,0.015620946884155273,64.01660587005296,63.49691111228142,1433,1446.3955372989553,-463.11349137438185,
95,1.4964699745178223,0.0160830020904541,62.177446373245175,63.482730437414865,1461,1453.6977686494777,-4.539696586124876,
96,1.511988878250122,0.015518903732299805,64.43754128835016,63.49253052119284,1419,1436.3488843247387,-561.2295732841508,
97,1.5275518894195557,0.015563011169433594,64.25491758073412,63.500297876531306,1466,1451.1744421623694,195.69271183060636,
98,1.5423190593719482,0.014767169952392578,67.71778229842747,63.5406788267966,1471,1461.0872210811847,433.4820583136917,
99,1.557732105255127,0.015413045883178711,64.88010271164941,63.553931812804024,1419,1440.0436105405925,-465.91477749194013,
100,1.5738239288330078,0.01609182357788086,62.14336089133849,63.53950919665461,1410,1425.0218052702962,-699.7101218216845,
101,1.5907530784606934,0.016929149627685547,59.06971241866884,63.49194062081185,1457,1441.010902635148,122.38063067710613,
102,1.6055400371551514,0.014786958694458008,67.62715854307412,63.530025810339374,1466,1453.5054513175742,483.6757276738455,
103,1.6197178363800049,0.014177799224853516,70.53280866377426,63.59132293696307,1499,1476.252725658787,1044.0524382024987,
104,1.6341938972473145,0.01447606086730957,69.07956585470296,63.63993903978025,1447,1461.6263628293937,16.834821957317843,
105,1.6521358489990234,0.017941951751708984,55.7352964626465,63.55409578674548,1424,1442.8131814146968,-515.8617107981806,
106,1.6680607795715332,0.015924930572509766,62.794622271461506,63.546845113897895,1410,1426.4065907073484,-773.0536885142974,
107,1.6831378936767578,0.01507711410522461,66.32569024953351,63.57173729020034,1452,1439.203295353674,37.84829003633291,
108,1.6977128982543945,0.014575004577636719,68.61061309952234,63.61499645260791,1386,1412.601647676837,-893.6535332644706,
109,1.7125349044799805,0.014822006225585938,67.4672500321709,63.648337744741255,1400,1406.3008238384186,-659.3763952898541,
110,1.728835105895996,0.016300201416015625,61.34893517435057,63.62665798771524,1466,1436.1504119192093,585.9320244298204,
111,1.745391845703125,0.016556739807128906,60.39836414953056,63.59603447974403,1400,1418.0752059596048,-252.89042359806996,
112,1.7618019580841064,0.016410112380981445,60.93803483996571,63.571276831702356,1419,1418.5376029798024,-112.35642893568573,
113,1.7777950763702393,0.015993118286132812,62.52689326177698,63.56188151376503,1424,1421.2688014899013,29.208464390996895,
114,1.792219877243042,0.014424800872802734,69.3250471058808,63.608266735310025,1433,1427.1344007449507,217.92070452575607,
115,1.8085269927978516,0.01630711555480957,61.32292352003743,63.587660266044004,1433,1430.0672003724753,198.8842758920229,
116,1.824018955230713,0.015491962432861328,64.54960140355197,63.59583033243622,1447,1438.5336001862377,372.6935045967442,
117,1.840230941772461,0.016211986541748047,61.682755375158095,63.57897660785377,1400,1419.266800093119,-407.8679062045854,
118,1.8562648296356201,0.01603388786315918,62.36790530995822,63.568515718289554,1419,1419.1334000465595,-208.0938938383753,
119,1.8704838752746582,0.014219045639038086,70.3282080517782,63.61990155222604,1490,1454.5667000232797,1141.9332994427375,
120,1.8855690956115723,0.015085220336914062,66.29004931091161,63.64126367964191,1424,1439.2833500116399,64.39963676760448,
121,1.9009950160980225,0.015425920486450195,64.82595323101653,63.65087702773903,1419,1429.14167500582,-296.52205642192393,
122,1.9166877269744873,0.015692710876464844,63.72385293223944,63.65147451148881,1490,1459.5708375029099,821.270709696925,
123,1.932508945465088,0.015821218490600586,63.20625687548034,63.64782956820837,1461,1460.285418751455,433.2183578254332,
124,1.9501750469207764,0.017666101455688477,56.6055845715751,63.58403580016546,1391,1425.6427093757275,-763.8762287654026,
125,1.9695489406585693,0.01937389373779297,51.61585035687915,63.466308157949626,1466,1445.8213546878637,138.83085403518203,
126,1.985943078994751,0.01639413833618164,60.997411360926094,63.44592719333072,1405,1425.4106773439319,-553.0838140338822,
127,2.000891923904419,0.014948844909667969,66.89480063795854,63.47169403941614,1443,1434.2053386719658,17.616651091656365,
128,2.015528917312622,0.014636993408203125,68.3200416992442,63.50690327512991,1433,1433.602669335983,-11.778871536775917,
129,2.0309619903564453,0.015433073043823242,64.79590922432837,63.51669829988289,1471,1452.3013346679913,599.9090749660692,
130,2.045681953430176,0.014719963073730469,67.93495302883058,63.54849041026026,1569,1510.6506673339957,2281.9341244473417,
131,2.059046983718872,0.013365030288696289,74.82212747738909,63.62166625425864,1569,1539.8253336669977,2232.422363962756,
132,2.0755369663238525,0.01648998260498047,60.642877797698226,63.598000007581476,1555,1547.4126668334989,1346.2700409946538,
133,2.091562032699585,0.016025066375732422,62.402237629065375,63.588838351754035,1415,1481.2063334167494,-1392.576654713238,
134,2.107430934906006,0.0158689022064209,63.0163313751709,63.584527388545986,1415,1448.1031667083748,-1739.3083887878486,
135,2.123915910720825,0.016484975814819336,60.661296154346786,63.561838450648935,1396,1422.0515833541874,-1659.815600962931,
136,2.1395630836486816,0.015647172927856445,63.90930838501272,63.564379587291164,1368,1395.0257916770938,-1693.5076278017077,
137,2.1538729667663574,0.014309883117675781,69.88177274241919,63.60635103085035,1363,1379.012895838547,-1406.2585878695363,
138,2.1683788299560547,0.014505863189697266,68.93764176062588,63.642015912319515,1336,1357.5064479192733,-1444.431195035988,
139,2.184102773666382,0.01572394371032715,63.59727676608391,63.641693823164395,1327,1342.2532239596367,-1207.2473503860317,
140,2.201479911804199,0.017377138137817383,57.546875214378815,63.59358504673545,1336,1339.1266119798183,-693.5870499162097,
141,2.2206459045410156,0.019165992736816406,52.17574762402349,63.495039759228625,1369,1354.0633059899092,42.87306354577646,
142,2.2372348308563232,0.016588926315307617,60.28117679184812,63.47120920947227,1368,1361.0316529949546,231.46661065193226,
143,2.2538087368011475,0.01657390594482422,60.33580758386559,63.44815230548857,1429,1395.0158264974773,1140.9645819984228,
144,2.2682628631591797,0.014454126358032227,69.18439587628866,63.48470555984874,1466,1430.5079132487385,1798.2315811366302,
145,2.283297061920166,0.015034198760986328,66.51501792001015,63.50465842497976,1733,1581.7539566243693,5929.18243329867,
146,2.2983391284942627,0.01504206657409668,66.48022697373635,63.524132792209244,1391,1486.3769783121847,-205.75036648224295,
147,2.3140270709991455,0.015687942504882812,63.74322188449848,63.525618106329524,1205,1345.6884891560924,-4586.843973676949,
148,2.33024001121521,0.016212940216064453,61.679127084497516,63.51277091101815,1228,1286.844244578046,-4108.15280659876,
149,2.3458118438720703,0.015571832656860352,64.21851698742977,63.517455753849354,1195,1240.922122289023,-3528.6016984576063,
150,2.3605740070343018,0.014762163162231445,67.7407497133259,63.54386668370204,1186,1213.4610611445114,-2694.417284155154,
151,2.37532377243042,0.014749765396118164,67.79768851531561,63.570281134978714,1200,1206.7305305722557,-1575.3658497178776,
152,2.394150972366333,0.018827199935913086,53.11464282548406,63.488059756635195,1195,1200.8652652861279,-943.4486602336345,
153,2.4097788333892822,0.01562786102294922,63.98828339537438,63.49130379936571,1167,1183.932632643064,-1013.4693782138881,
154,2.4251608848571777,0.015382051467895508,65.01083435373623,63.50094171548926,1158,1170.9663163215318,-928.2102103855782,
155,2.4409568309783936,0.01579594612121582,63.30738230721628,63.4996891517628,1167,1168.983158160766,-526.8793811224313,
156,2.455878973007202,0.014922142028808594,67.01450757333674,63.52104550534075,1195,1181.991579080383,172.43677055619844,
157,2.470892906188965,0.015013933181762695,66.60479888206056,63.539783374161836,1158,1169.9957895401915,-313.2701895998905,
158,2.485883951187134,0.014991044998168945,66.70649044960797,63.55888010160213,1083,1126.4978947700956,-1607.431045829671,
159,2.5007948875427246,0.01491093635559082,67.06486944564365,63.579784488536376,961,1043.7489473850478,-3578.489199486169,
160,2.5160460472106934,0.01525115966796875,65.5687843921961,63.591840927306215,1013,1028.374473692524,-2293.28737508738,
161,2.531369924545288,0.015323877334594727,65.25763539900113,63.6019249651631,1013,1020.687236846262,-1397.469137213255,
162,2.5494608879089355,0.01809096336364746,55.27621608086559,63.542845771159165,1060,1040.343618423131,-155.46937090115023,
