Index,Time,Difference,Hz,AveHz,0x6103 Range,0x6103 Smoothed Range,0x6103 Velocity,
0,7.152557373046875e-07,7.152557373046875e-07,1398101.3333333333,0.0,1359,679.5,475004928.0,
1,0.013781070709228516,0.013780355453491211,72.56706863440544,72.56330230787862,1396,1037.75,237515462.57616913,
2,0.0291290283203125,0.015347957611083984,65.1552490135769,68.6600314300681,1363,1200.375,118763029.22426999,
3,0.044245004653930664,0.015115976333618164,66.15517105408432,67.80426453709242,1364,1282.1875,59384220.772100925,
4,0.06091809272766113,0.01667308807373047,59.976891837785274,65.66193754427437,1372,1327.09375,29693457.05470001,
5,0.07683110237121582,0.015913009643554688,62.84166367014264,65.07781153317424,1363,1345.046875,14847292.629471544,
6,0.09556698799133301,0.018735885620117188,53.37351114730734,62.78318618291225,ranging-error,1345.046875,14847292.629471544,
7,0.11657190322875977,0.021004915237426758,47.60790456407986,60.04877510031947,1364,1354.5234375,7423871.89437732,
8,0.13152599334716797,0.014954090118408203,66.87133701093715,60.82447884566581,1363,1358.76171875,3712077.656955568,
9,0.147169828414917,0.015643835067749023,63.922944448677896,61.153839050666235,1415,1386.880859375,1856937.5576098424,
10,0.16269588470458984,0.015526056289672852,64.40785614471523,61.46436966219028,1369,1377.9404296875,928180.861850329,
11,0.17763280868530273,0.01493692398071289,66.94818834796489,61.92549721762146,1363,1370.47021484375,463840.37224998494,
12,0.1928389072418213,0.015206098556518555,65.76308816381568,62.22810620344327,1374,1372.235107421875,231978.21851809992,
13,0.20823287963867188,0.015393972396850586,64.96049065312002,62.4301024053346,1355,1363.6175537109375,115709.2090004039,
14,0.2242887020111084,0.016055822372436523,62.282701988328405,62.41955067048637,1364,1363.8087768554688,57860.55944726401,
15,0.23991775512695312,0.015629053115844727,63.98340274281879,62.52142527785286,1372,1367.9043884277344,29061.305305985214,
16,0.25502586364746094,0.015108108520507812,66.18962252240878,62.73873469601442,1355,1361.4521942138672,14317.118503264037,
17,0.26943087577819824,0.014405012130737305,69.4202816994654,63.09596088755171,1341,1351.2260971069336,6803.60998070731,
18,0.28586506843566895,0.016434192657470703,60.84874510372842,62.96676994674751,1382,1366.6130485534668,3869.9433336004267,
19,0.301563024520874,0.015697956085205078,63.70256067555663,63.00507175966737,1374,1370.3065242767334,2052.6135974827566,
20,0.31653690338134766,0.014973878860473633,66.7829631398774,63.183786112625896,1364,1367.1532621383667,921.0147041629211,
21,0.3326230049133301,0.016086101531982422,62.16546613309619,63.13453877151962,ranging-error,1367.1532621383667,921.0147041629211,
22,0.34540891647338867,0.012785911560058594,78.21108376221378,63.69262329594478,1364,1365.5766310691833,398.85233977445677,
23,0.37300992012023926,0.027601003646850586,36.23056656905681,61.660558498245784,1378,1371.7883155345917,311.9525936522046,
24,0.3878617286682129,0.014851808547973633,67.33186714398086,61.877721430283806,1382,1376.8941577672958,327.869242261384,
25,0.403181791305542,0.015320062637329102,65.2738845573245,62.006768507693664,1369,1372.947078883648,35.114035435748264,
26,0.42024993896484375,0.017068147659301758,58.58866585648633,61.867944737940924,1374,1373.473539441824,32.9793285826718,
27,0.43604111671447754,0.01579117774963379,63.32649887518306,61.92076610444921,1378,1375.736769720912,88.15088915280978,
28,0.45288896560668945,0.016847848892211914,59.35475836694262,61.82530846714545,1382,1378.868384860456,137.0135745293519,
29,0.4695279598236084,0.016638994216918945,60.09978649930505,61.76415992541675,1372,1375.434192430228,-34.690328662440066,
30,0.48590087890625,0.0163729190826416,61.076463821298034,61.740987313151614,1368,1371.717096215114,-130.858710582567,
31,0.5019669532775879,0.01606607437133789,62.24295847802214,61.757053522320206,1374,1372.858548107557,-29.905683918288737,
32,0.5209858417510986,0.019018888473510742,52.579308269922656,61.42201464140368,1378,1375.4292740537785,52.630654042790084,
33,0.5373687744140625,0.016382932662963867,61.03913264934876,61.41034159638811,1410,1392.7146370268892,553.8571087253193,
34,0.5542590618133545,0.016890287399291992,59.205623703118164,61.34315583179301,1359,1375.8573185134446,-222.09547391264516,
35,0.569782018661499,0.015522956848144531,64.42071634822142,61.42699989413513,1368,1371.9286592567223,-237.59125875938383,
36,0.5871498584747314,0.017367839813232422,57.57768443016775,61.313137490178406,ranging-error,1371.9286592567223,-237.59125875938383,
37,0.5973730087280273,0.010223150253295898,97.81720655798875,61.93785032032708,ranging-error,1371.9286592567223,-237.59125875938383,
38,0.6099569797515869,0.01258397102355957,79.46617153900078,62.29947563757038,ranging-error,1371.9286592567223,-237.59125875938383,
39,0.6193287372589111,0.009371757507324219,106.70357179200163,62.971403801816486,1372,1371.9643296283612,-116.89255134918554,
40,0.6389799118041992,0.019651174545288086,50.88754352547226,62.59977702124865,1377,1374.4821648141806,5.616948129582909,
41,0.6545639038085938,0.015583992004394531,64.16841074597637,62.63712337548808,1386,1380.2410824070903,187.57876884182141,
42,0.6708800792694092,0.01631617546081543,61.2888726528823,62.604333170450005,1410,1395.1205412035451,549.7620120807761,
43,0.6865811347961426,0.0157010555267334,63.68998557436793,62.62916037267383,1415,1405.0602706017726,591.411617033501,
44,0.7026677131652832,0.016086578369140625,62.16362342897795,62.61850256616275,1438,1421.5301353008863,807.6190420577116,
45,0.7201380729675293,0.017470359802246094,57.23980566624816,62.488016797341345,ranging-error,1421.5301353008863,807.6190420577116,
46,0.728693962097168,0.008555889129638672,116.87855988407736,63.126638057508856,1447,1434.2650676504431,1148.0297976475333,
47,0.7459547519683838,0.01726078987121582,57.93477630288548,63.006502574022115,1438,1436.1325338252216,628.1105163682635,
48,0.7661998271942139,0.020245075225830078,49.394728784417175,62.646842633433685,1368,1402.066266912611,-527.2917492388526,
49,0.7819478511810303,0.015748023986816406,63.500030279173984,62.66402538991812,1350,1376.0331334563054,-1090.198255988013,
50,0.7972838878631592,0.015336036682128906,65.20589515577389,62.71291915105362,1322,1349.0165667281526,-1425.9188367664583,
51,0.8193490505218506,0.022065162658691406,45.32030946103644,62.24453420372875,1350,1349.5082833640763,-701.8170433296283,
52,0.8468308448791504,0.027481794357299805,36.3877258885891,61.405415632233876,ranging-error,1349.5082833640763,-701.8170433296283,
53,0.857421875,0.01059103012084961,94.41952185853856,61.81321184510251,ranging-error,1349.5082833640763,-701.8170433296283,
54,0.8658740520477295,0.008452177047729492,118.31271332261431,62.3647283023367,1294,1321.7541416820382,-1992.7424258359144,
55,0.8824977874755859,0.016623735427856445,60.15495159555396,62.323102426499354,1303,1312.377070841019,-1278.4098341927488,
56,0.899338960647583,0.01684117317199707,59.378286167306086,62.26795730018894,1284,1298.1885354205097,-1060.450375343358,
57,0.9170928001403809,0.01775383949279785,56.32584435640905,62.15292497255994,1313,1305.5942677102548,-321.65812552296927,
58,0.9346258640289307,0.017533063888549805,57.03509702334816,62.05691735297906,1266,1285.7971338551274,-725.3947878671859,
59,0.950455904006958,0.015830039978027344,63.17103439966263,62.07547320319247,1266,1275.8985669275637,-675.3487498778378,
60,0.9672238826751709,0.01676797866821289,59.637480449310395,62.03320769339418,1233,1254.4492834637817,-977.2649865504259,
61,0.9858989715576172,0.01867508888244629,53.547268572304,61.87246539432574,1266,1260.2246417318909,-334.0051631333549,
62,1.0029919147491455,0.01709294319152832,58.50367539369255,61.81505462634421,1303,1281.6123208659455,458.62633717491565,
63,1.0218169689178467,0.018825054168701172,53.120697079459966,61.6548774549321,ranging-error,1281.6123208659455,458.62633717491565,
64,1.0294160842895508,0.0075991153717041016,131.59426473817965,62.17116769082684,1289,1285.3061604329728,472.35721952932965,
65,1.043637990951538,0.014221906661987305,70.3140601163434,62.28213285023879,ranging-error,1285.3061604329728,472.35721952932965,
66,1.05116605758667,0.007528066635131836,132.8362311955661,62.78741548364562,1214,1249.6530802164864,-2131.83179347096,
67,1.066809892654419,0.015643835067749023,63.922944448677896,62.80406702387404,1252,1250.826540108243,-1028.4103909987225,
68,1.0824830532073975,0.015673160552978516,63.803340533633516,62.81853540202407,1233,1241.9132700541215,-798.5533977650387,
69,1.1200430393218994,0.03755998611450195,26.624078000228515,61.604775510925215,ranging-error,1241.9132700541215,-798.5533977650387,
70,1.1299548149108887,0.009911775588989258,100.89009693791644,61.949379812608164,1200,1220.9566350270607,-1456.435168568873,
71,1.1498939990997314,0.019939184188842773,50.152503258361136,61.74482174494947,1153,1186.9783175135303,-1580.266424189916,
72,1.1681480407714844,0.01825404167175293,54.78238835991275,61.63602342084037,1135,1160.9891587567652,-1502.0073061752264,
73,1.1846389770507812,0.016490936279296875,60.63937080730974,61.62214937561585,1153,1156.9945793783827,-872.1180431600969,
74,1.201528787612915,0.01688981056213379,59.20729521040076,61.58820393060767,1097,1126.9972896891913,-1324.0882146499798,
75,1.2181520462036133,0.016623258590698242,60.156677136669394,61.56866889789208,ranging-error,1126.9972896891913,-1324.0882146499798,
76,1.225606918334961,0.007454872131347656,134.1404630932583,62.01009382620753,ranging-error,1126.9972896891913,-1324.0882146499798,
77,1.2352988719940186,0.009691953659057617,103.17837199576886,62.33309342839976,1079,1102.9986448445957,-1900.1146599100064,
78,1.2526559829711914,0.01735711097717285,57.6132745429321,62.26769445110601,1088,1095.4993224222978,-1166.087590755909,
79,1.2686517238616943,0.01599574089050293,62.516641576366425,62.270833290265884,1083,1089.249661211149,-778.3977103335095,
80,1.285681962966919,0.01703023910522461,58.71908161836763,62.22378652290266,1088,1088.6248306055745,-407.5435948299468,
81,1.304811716079712,0.01912975311279297,52.27458995961912,62.07792204944583,1041,1064.8124153027873,-826.1639203656553,
82,1.3214118480682373,0.01660013198852539,60.2404848763393,62.0548393900624,1013,1038.9062076513937,-1193.383215296366,
83,1.3385250568389893,0.017113208770751953,58.43439493995375,62.00855155898964,ranging-error,1038.9062076513937,-1193.383215296366,
84,1.3609590530395508,0.022433996200561523,44.57520590892184,61.72118096602197,952,995.4531038256969,-1565.1571328542816,
85,1.3791277408599854,0.01816868782043457,55.03974804802834,61.63315948310661,947,971.2265519128484,-1449.2902231049693,
86,1.3948349952697754,0.01570725440979004,63.66485026031785,61.65603837847983,915,943.1132759564242,-1619.5588635988556,
87,1.410315752029419,0.015480756759643555,64.59632532996565,61.68831332615307,933,938.0566379782122,-973.0995477576505,
88,1.4289538860321045,0.018638134002685547,53.65343976258091,61.58351284823959,888,913.0283189891061,-1157.9774764991569,
89,1.450967788696289,0.02201390266418457,45.42583908245156,61.338370633277464,897,905.014159494553,-761.0136980399124,
90,1.4691569805145264,0.018189191818237305,54.97770379205935,61.259621125361505,888,896.5070797472765,-614.356704260554,
91,1.487921953201294,0.018764972686767578,53.29077833964374,61.15912182370297,850,873.2535398736383,-926.7779716393388,
92,1.5043847560882568,0.01646280288696289,60.742997827661114,61.1545680901613,827,850.1267699368191,-1165.7836538361826,
93,1.5202789306640625,0.015894174575805664,62.916132903322584,61.1729848544157,808,829.0633849684095,-1245.5051909512422,
94,1.5369880199432373,0.016709089279174805,59.847666338484366,61.158576892142285,817,823.0316924842048,-803.2439551011365,
95,1.5533530712127686,0.01636505126953125,61.105827505827506,61.1580211611707,780,801.5158462421024,-1058.993772106476,
96,1.5684819221496582,0.015128850936889648,66.09887321724057,61.20567833413643,752,776.7579231210511,-1347.7322968035155,
97,1.5855889320373535,0.017107009887695312,58.455569182740554,61.17600724884151,ranging-error,776.7579231210511,-1347.7322968035155,
98,1.5988597869873047,0.013270854949951172,75.35309546908124,61.29367990714132,ranging-error,776.7579231210511,-1347.7322968035155,
99,1.6242039203643799,0.025344133377075195,39.456863058673015,60.952937472155575,644,710.3789615605256,-1983.4189465370464,
100,1.637861967086792,0.01365804672241211,73.21691163635094,61.05520612208031,649,679.6894807802628,-2115.2039744955187,
101,1.6535110473632812,0.015649080276489258,63.90151896034249,61.08214406009348,644,661.8447403901314,-1627.7549954389447,
102,1.670314073562622,0.01680302619934082,59.51308937667608,61.06635968314848,565,613.4223701950657,-2254.7599203441923,
103,1.6879019737243652,0.017587900161743164,56.857270669251314,61.02250107139215,569,591.2111850975328,-1758.8136416597292,
104,1.704007863998413,0.01610589027404785,62.08908560685684,61.03258218302263,574,582.6055925487665,-1146.5635070589067,
105,1.7203009128570557,0.016293048858642578,61.375867013960026,61.03583344940347,ranging-error,582.6055925487665,-1146.5635070589067,
106,1.7280960083007812,0.007795095443725586,128.2857929346995,61.33918456546213,504,543.3027962743832,-3094.276945834557,
107,1.7468018531799316,0.01870584487915039,53.459226592571824,61.25480105554841,452,497.6513981371916,-2767.382691559197,
108,1.7696459293365479,0.02284407615661621,43.775024787350624,61.02915742048463,447,472.3256990685958,-1938.0078980219814,
109,1.787458896636963,0.01781296730041504,56.13887810688903,60.98042321704819,438,455.1628495342979,-1450.755507997404,
110,1.8039019107818604,0.01644301414489746,60.81610045384024,60.978925374231125,386,420.581424767149,-1776.9314552366257,
111,1.820533037185669,0.016631126403808594,60.12821836114456,60.971153905338085,386,403.2907123835745,-1408.2955925279693,
112,1.8361790180206299,0.015645980834960938,63.914177739851276,60.996231250226415,ranging-error,403.2907123835745,-1408.2955925279693,
113,1.8463249206542969,0.010145902633666992,98.56195511690753,61.20266196697128,ranging-error,403.2907123835745,-1408.2955925279693,
114,1.8691489696502686,0.02282404899597168,43.81343556423729,60.99032332416513,ranging-error,403.2907123835745,-1408.2955925279693,
115,1.8790616989135742,0.009912729263305664,100.88039060057243,61.20075783913327,311,357.14535619178724,-3031.728574779005,
116,1.8970019817352295,0.017940282821655273,55.74048134809361,61.149119039871664,246,301.5726780958936,-3064.688200823388,
117,1.9128878116607666,0.01588582992553711,62.94918205012757,61.16406790130612,241,271.2863390479468,-2485.594235592239,
118,1.9380879402160645,0.02520012855529785,39.68233724703634,60.8847501454681,152,211.6431695239734,-2426.1873015623555,
119,1.955077886581421,0.016989946365356445,58.85833766015072,60.867140289781055,157,184.32158476198668,-2017.145181446899,
120,1.9706239700317383,0.015546083450317383,64.32488306111495,60.8944181258829,152,168.16079238099334,-1528.3431307646265,
121,1.9869120121002197,0.016288042068481445,61.394733375294585,60.8985195434496,49,108.58039619049667,-2593.1328346372934,
122,2.00357985496521,0.016667842864990234,59.99576598483765,60.89100950863693,44,76.29019809524834,-2265.204001581931,
123,2.0203909873962402,0.016811132431030273,59.484392506133794,60.87930542519153,0,38.14509904762417,-2267.1210227580787,
124,2.0367188453674316,0.016327857971191406,61.245020734770165,60.8822372719932,0,19.072549523812086,-1717.6098569044402,
125,2.053457021713257,0.016738176345825195,59.7436649811267,60.8729565207598,0,9.536274761906043,-1143.6709307238643,
126,2.0701539516448975,0.016696929931640625,59.89124971441627,60.86503851555738,0,4.768137380953021,-714.6203186395823,
127,2.0862438678741455,0.016089916229248047,62.15072755830839,60.87495424464029,ranging-error,4.768137380953021,-714.6203186395823,
128,2.1067769527435303,0.020533084869384766,48.70188801932143,60.75631301800279,ranging-error,4.768137380953021,-714.6203186395823,
129,2.128873109817505,0.02209615707397461,45.25673838451412,60.59543868777523,0,2.3840686904765107,-411.2577458275944,
130,2.1422839164733887,0.013410806655883789,74.56673007520133,60.682899684932984,0,1.1920343452382554,-250.07192454467238,
131,2.1592090129852295,0.01692509651184082,59.083858062516725,60.67036549596698,ranging-error,1.1920343452382554,-250.07192454467238,
132,2.167820930480957,0.008611917495727539,116.11815841200409,60.89063821831179,0,0.5960171726191277,-159.64017050556754,
133,2.183684825897217,0.015863895416259766,63.036219904415525,60.906225304447915,0,0.29800858630956384,-89.2127526427906,
134,2.201218843460083,0.01753401756286621,57.031994887344815,60.875364754449485,0,0.14900429315478192,-48.85538236409328,
135,2.218989849090576,0.017771005630493164,56.271435662825176,60.83849372061255,0,0.07450214657739096,-26.523862555982653,
136,2.234462022781372,0.015472173690795898,64.63215964249942,60.864762351482014,0,0.03725107328869548,-14.465739935816032,
137,2.2514729499816895,0.017010927200317383,58.78574331805631,60.849054393975365,0,0.01862553664434774,-7.780327976075855,
138,2.2703990936279297,0.018926143646240234,52.836965558942836,60.78226527983951,0,0.00931276832217387,-4.1361931975864845,
139,2.2888588905334473,0.018459796905517578,54.171776922480824,60.7289512581548,0,0.004656384161086935,-2.1942189008131296,
140,2.3037779331207275,0.014919042587280273,67.02842988413903,60.76974607112161,0,0.0023281920805434675,-1.1751369802203226,
141,2.3202898502349854,0.016511917114257812,60.56231951022294,60.76826995804871,0,0.0011640960402717337,-0.6228186682759224,
142,2.337022066116333,0.016732215881347656,59.7649472784269,60.76108653778174,ranging-error,0.0011640960402717337,-0.6228186682759224,
143,2.351141929626465,0.014119863510131836,70.82221434240076,60.821508985941556,ranging-error,0.0011640960402717337,-0.6228186682759224,
144,2.3692150115966797,0.018073081970214844,55.33090602079046,60.77962502143459,ranging-error,0.0011640960402717337,-0.6228186682759224,
145,2.3894338607788086,0.020218849182128906,49.45879911324938,60.68383075174925,0,0.0005820480201358669,-0.3258030321890434,
146,2.4072139263153076,0.017780065536499023,56.24276231981227,60.651028312834825,0,0.00029102401006793344,-0.1710855132083264,
147,2.4216620922088623,0.014448165893554688,69.21293729372937,60.70211053513143,0,0.00014551200503396672,-0.09057841324411359,
148,2.4364418983459473,0.014779806137084961,67.6598861125002,60.74431740008834,0,7.275600251698336e-05,-0.04775053804420673,
149,2.4524879455566406,0.01604604721069336,62.32064426020029,60.75463093303054,0,3.637800125849168e-05,-0.025008819259767154,
150,2.4704158306121826,0.017927885055541992,55.779027860895006,60.71852282570144,0,1.818900062924584e-05,-0.013011692016313848,
151,2.4923768043518066,0.021960973739624023,45.53532151425997,60.58473972970176,0,9.09450031462292e-06,-0.006712906506075871,
152,2.508971929550171,0.016595125198364258,60.25865957905323,60.58258293358101,0,4.54725015731146e-06,-0.003493458852663049,
153,2.5254788398742676,0.01650691032409668,60.58068895789702,60.58257055427049,0,2.27362507865573e-06,-0.0018155983131799831,
154,2.5422279834747314,0.016749143600463867,59.704545131030166,60.57678579617865,0,1.136812539327865e-06,-0.0009417355943699023,
155,2.55763578414917,0.015407800674438477,64.90218955512573,60.60284304771046,0,5.684062696639325e-07,-0.0004893132029139764,
156,2.573280096054077,0.015644311904907227,63.920996083332064,60.62301583073438,0,2.8420313483196625e-07,-0.0002537398751912206,
157,2.5898048877716064,0.016524791717529297,60.515134901168665,60.622327473901095,ranging-error,2.8420313483196625e-07,-0.0002537398751912206,
158,2.6121397018432617,0.022334814071655273,44.773150866256046,60.48681082734854,0,1.4210156741598312e-07,-0.00013005110505373395,
159,2.6276209354400635,0.015481233596801758,64.59433569987526,60.5110112556518,0,7.105078370799156e-08,-6.732029161415359e-05,
