Index,Time,Difference,Hz,AveHz,0x6103 Linear-Acceleration-X,0x6103 Linear-Acceleration-Y,0x6103 Linear-Acceleration-Z,0x6103 Range,0x6103 Smoothed Range,0x6103 Velocity,0x6104 Linear-Acceleration-X,0x6104 Linear-Acceleration-Y,0x6104 Linear-Acceleration-Z,0x6104 Range,0x6104 Smoothed Range,0x6104 Velocity,
0,1.1920928955078125e-06,1.1920928955078125e-06,838860.8,0.0,-3.0,-2.0,-1.0,335,331.0,167772.16000000003,0.0,-1.0,13.0,1299,1463.0,-6878658.56,
1,0.034574270248413086,0.03457307815551758,28.92423970760637,28.9232424231976,0.0,-1.0,-9.0,368,338.40000000000003,134260.5358747673,1.0,-4.0,6.0,1289,1428.2,-5503128.160708365,
2,0.06852006912231445,0.03394579887390137,29.45872635711727,29.18852864012471,-5.0,-2.0,0.0,330,336.72,107398.53056775784,0.0,-4.0,5.0,1588,1460.1600000000003,-4402314.228387818,
3,0.10575532913208008,0.037235260009765625,26.856264726974697,28.367364790224766,-3.0,-2.0,0.0,339,337.17600000000004,85921.27374554938,0.0,-4.0,14.0,1818,1531.7280000000005,-3521466.972879458,
4,0.14146113395690918,0.0357058048248291,28.006650596617277,28.27631794057617,0.0,-2.0,-3.0,349,339.54080000000005,68750.26502190568,1.0,-5.0,14.0,1359,1497.1824000000004,-2817367.079613337,
5,0.17458820343017578,0.0331270694732666,30.18679333549246,28.63881924301766,-1.0,-2.0,-4.0,335,338.63264000000004,54994.729129877436,0.0,-4.0,3.0,1677,1533.1459200000004,-2253676.539021498,
6,0.20816326141357422,0.03357505798339844,29.78401408850764,28.8235299507502,2.0,-2.0,-3.0,330,336.90611200000006,43985.498717046714,0.0,-4.0,12.0,1396,1505.7167360000003,-1803104.621457737,
7,0.24140429496765137,0.03324103355407715,30.083300459751978,28.996998586698773,2.0,-2.0,-1.0,311,331.72488960000004,35157.22531959577,0.0,-4.0,10.0,1386,1481.7733888000002,-1442627.7561477555,
8,0.2787132263183594,0.03730893135070801,26.80323353676071,28.703338214965168,1.0,-1.0,2.0,307,326.77991168000005,28099.27197607184,0.0,-3.0,5.0,1391,1463.6187110400003,-1154199.5257317617,
9,0.3193233013153076,0.04061007499694824,24.624431254439884,28.18460150865464,-3.0,-2.0,-1.0,321,325.62392934400003,22473.724499344637,1.0,-5.0,4.0,1424,1455.6949688320003,-923398.6441144652,
10,0.35628318786621094,0.03695988655090332,27.05636010605015,28.067560694879415,-2.0,-2.0,-2.0,293,319.09914347520004,17943.672208259486,0.0,-4.0,10.0,1560,1476.5559750656003,-738606.030712206,
11,0.3906590938568115,0.034375905990600586,29.090142388492403,28.157542401999827,-3.0,-2.0,-6.0,278,310.87931478016003,14307.114569178042,0.0,-3.0,11.0,1429,1467.0447800524803,-590940.1609732081,
12,0.4297139644622803,0.03905487060546875,25.60500097675327,27.92555279188127,0.0,-4.0,4.0,349,318.50345182412804,11484.734862633975,1.0,-5.0,10.0,1374,1448.4358240419842,-472847.42524593155,
13,0.4669649600982666,0.03725099563598633,26.844920059907068,27.839347940077392,0.0,-2.0,0.0,325,319.8027614593025,9194.763862765045,2.0,-3.0,5.0,1424,1443.5486592335874,-378304.1793064655,
14,0.5042953491210938,0.03733038902282715,26.78782692000639,27.761509251274603,-3.0,-1.0,0.0,368,329.442209167442,7407.4550615740545,3.0,-3.0,13.0,1527,1460.23892738687,-302553.9242422647,
15,0.5417389869689941,0.03744363784790039,26.70680674944285,27.68861086392239,-4.0,-2.0,-8.0,339,331.3537673339536,5936.174372167913,0.0,-6.0,10.0,1457,1459.5911419094962,-242046.59945012364,
16,0.5791339874267578,0.03739500045776367,26.74154265967892,27.627458148488472,0.0,-1.0,-2.0,335,332.0830138671629,4752.839733189779,0.0,-5.0,5.0,1242,1416.0729135275972,-193870.02847224855,
17,0.6149311065673828,0.035797119140625,27.935208866155158,27.645373308395445,-3.0,-1.0,2.0,354,336.46641109373036,3826.7620099653204,-1.0,-4.0,13.0,1461,1425.0583308220778,-155045.82087602466,
18,0.6527490615844727,0.037817955017089844,26.442466271592487,27.575681160394296,-3.0,-2.0,1.0,344,337.9731288749843,3069.37787479458,0.0,-3.0,15.0,1256,1391.2466646576622,-124215.46946924752,
19,0.6907379627227783,0.037988901138305664,26.323477911596175,27.506813039643927,-1.0,0.0,-5.0,330,336.3785030999874,2447.1070805625855,0.0,-6.0,6.0,1289,1370.7973317261299,-99480.03508814404,
20,0.7243289947509766,0.03359103202819824,29.769850451767677,27.61176225849688,-2.0,-1.0,253.0,372,343.50280247999,2000.1035298733282,0.0,-4.0,7.0,1191,1334.837865380904,-79798.12965759978,
21,0.7634191513061523,0.03909015655517578,25.58188782356242,27.507824455373683,0.0,0.0,0.0,349,344.60224198399203,1605.7079715106972,-1.0,-3.0,15.0,1214,1310.6702923047233,-63962.15415476035,
22,0.7967071533203125,0.033288002014160156,30.04085374588168,27.61365943347442,-3.0,-2.0,-3.0,349,345.48179358719364,1289.850873423305,2.0,-1.0,13.0,1238,1296.1362338437789,-51257.04642872015,
23,0.8322360515594482,0.03552889823913574,28.14610217489045,27.636389888304503,0.0,-1.0,-5.0,363,348.98543486975495,1051.6034678432711,0.0,-4.0,8.0,1372,1311.3089870750232,-40920.22637043192,
24,0.8672471046447754,0.03501105308532715,28.562408493193598,27.67377356633598,-1.0,0.0,2.0,368,352.788347895804,863.006845337437,-1.0,-1.0,14.0,1522,1353.4471896600187,-32495.46738526522,
25,0.9011352062225342,0.03388810157775879,29.508882275551052,27.74278468688114,-3.0,-1.0,-1.0,363,354.83067831664323,702.4588538612139,1.0,-4.0,16.0,1214,1325.5577517280149,-26160.97113634553,
26,0.9386551380157471,0.03751993179321289,26.652500476583846,27.6992038364188,-1.0,-2.0,-4.0,368,357.4645426533146,576.0068971866493,-1.0,-3.0,9.0,1374,1335.246201382412,-20877.13262727019,
27,0.9750909805297852,0.036435842514038086,27.445502313133495,27.689723871028317,-1.0,-3.0,2.0,358,357.5716341226517,461.39335358320113,-2.0,-4.0,5.0,1331,1334.3969611059297,-16706.367667010676,
28,1.0152950286865234,0.04020404815673828,24.873117157292977,27.578190780883965,0.0,-2.0,3.0,358,357.6573072981214,369.54087465270004,0.0,-3.0,11.0,1280,1323.5175688847437,-13419.215013072082,
29,1.0509891510009766,0.035694122314453125,28.015817035374585,27.59305362227574,-3.0,-3.0,-5.0,363,358.72584583849715,301.61989577064276,1.0,-2.0,12.0,1266,1312.014055107795,-10799.828077905448,
30,1.0871191024780273,0.03612995147705078,27.677867229774318,27.595872367265624,0.0,-1.0,-5.0,325,351.9806766707977,203.95753728332377,0.0,-4.0,10.0,1391,1327.811244086236,-8552.41596249457,
31,1.1246652603149414,0.03754615783691406,26.633883667767336,27.563757051870734,-3.0,-2.0,4.0,339,349.3845413366382,149.33699653150217,-3.0,-4.0,8.0,1284,1319.0489952689888,-6888.607313128974,
32,1.1632521152496338,0.03858685493469238,25.915561185084496,27.509083869693033,-6.0,-2.0,4.0,321,343.7076330693106,90.04554451639348,-1.0,-5.0,7.0,1299,1315.0391962151912,-5531.669089046897,
33,1.19805908203125,0.03480696678161621,28.72988060907864,27.5445514290081,-5.0,-2.0,-2.0,307,336.3661064554485,29.85219899218864,1.0,-3.0,10.0,1252,1302.431356972153,-4497.779614475707,
34,1.2317571640014648,0.033698081970214844,29.675279467949625,27.60284331495032,-2.0,-4.0,2.0,316,332.29288516435884,-0.2930368358268609,0.0,-3.0,11.0,1256,1293.1450855777225,-3653.338231349556,
35,1.2825522422790527,0.05079507827758789,19.686946726120627,27.289336719575775,2.0,-1.0,-8.0,321,330.0343081314871,-9.12732661325866,-3.0,-4.0,9.0,1256,1285.716068462178,-2951.921517915877,
36,1.3233561515808105,0.04080390930175781,24.50745570981162,27.203561155473018,-8.0,1.0,-1.0,330,330.0274465051897,-7.335493491123057,-3.0,-4.0,7.0,1350,1298.5728547697424,-2298.5197901320726,
37,1.3627300262451172,0.03937387466430664,25.397551257675026,27.151379427626065,1.0,-3.0,0.0,354,334.8219572041518,18.48537145357373,2.0,-2.0,10.0,1303,1299.458283815794,-1834.3182861892326,
38,1.3954951763153076,0.03276515007019043,30.520232559831765,27.230477499991032,-2.0,-1.0,-3.0,316,331.0575657633214,-8.189723281217606,1.0,-2.0,13.0,1368,1313.1666270526352,-1383.7782642317075,
39,1.4322960376739502,0.03680086135864258,27.17327701258147,27.22900781275359,-5.0,-1.0,0.0,316,328.0460526106571,-22.918314849849963,0.0,-5.0,8.0,1350,1320.5333016421082,-1066.9872735291074,
40,1.4650721549987793,0.0327761173248291,30.510020149411158,27.30240955267717,-4.0,-1.0,2.0,335,329.4368420885257,-9.848048881208177,1.0,-3.0,13.0,1369,1330.2266413136865,-794.4410210842977,
41,1.4993200302124023,0.03424787521362305,29.19889171992259,27.345729513259222,-1.0,0.0,0.0,368,337.14947367082056,37.16161978445011,0.0,-4.0,13.0,1289,1321.9813130509492,-683.7037062952149,
42,1.5422132015228271,0.042893171310424805,23.31373431828667,27.23358868833956,1.0,-2.0,-8.0,335,336.71957893665643,27.724805504133524,-3.0,-4.0,11.0,1308,1319.1850504407594,-560.0012297517969,
43,1.5792741775512695,0.03706097602844238,26.982559747820773,27.227697768523825,-1.0,-1.0,0.0,335,336.37566314932513,20.323898747329707,0.0,-2.0,3.0,1341,1323.5480403526076,-424.4560566063208,
44,1.6148011684417725,0.03552699089050293,28.14761326345035,27.247936687126927,-1.0,-2.0,2.0,288,326.70053051946013,-38.20725930974212,0.0,-4.0,9.0,1345,1327.8384322820862,-315.4119867291384,
45,1.6488261222839355,0.034024953842163086,29.390194168634512,27.292144024056643,0.0,-2.0,-2.0,288,318.9604244155681,-76.06245170363754,-1.0,-3.0,14.0,1350,1332.2707458256689,-226.27627825087777,
46,1.6833691596984863,0.03454303741455078,28.949393997956985,27.326151091088782,1.0,-1.0,-6.0,274,309.96833953245454,-112.9130429917757,-1.0,-4.0,8.0,1372,1340.2165966605353,-135.0155093071936,
47,1.719041109085083,0.03567194938659668,28.033231073593594,27.34082376018022,-3.0,0.0,0.0,246,297.17467162596364,-162.06000413371612,0.0,-5.0,2.0,1363,1344.7732773284283,-82.46471102743044,
48,1.761925220489502,0.042884111404418945,23.31865969121972,27.242926908478292,-4.0,-2.0,1.0,227,283.1397373007709,-195.10317477053056,1.0,-4.0,8.0,1378,1351.4186218627428,-34.97966327662691,
49,1.7962732315063477,0.0343480110168457,29.113767301098108,27.278700779228778,-1.0,-2.0,-4.0,264,279.3117898406167,-178.3717341355761,0.0,-3.0,10.0,1377,1356.5348974901945,1.8070809918796726,
50,1.8349761962890625,0.038702964782714844,25.837813862947538,27.248309869695735,-3.0,-2.0,-6.0,269,277.2494318724934,-153.35475156828824,1.0,-4.0,6.0,1364,1358.0279179921556,9.160941958151103,
51,1.8709771633148193,0.036000967025756836,27.7770316359711,27.258483427795053,-5.0,-2.0,0.0,250,271.7995454979947,-152.96013450201025,1.0,-7.0,6.0,1345,1355.4223343937244,-7.146322042237106,
52,1.9068751335144043,0.03589797019958496,27.856728233942366,27.26974571437359,-5.0,-2.0,0.0,246,266.6396363983958,-151.1157447014828,2.0,-3.0,11.0,1372,1358.7378675149796,12.754923388098234,
53,1.9444561004638672,0.03758096694946289,26.609214215928844,27.256979464517805,-1.0,-4.0,-9.0,274,268.11170911871665,-113.05845608989772,2.0,-6.0,9.0,1378,1362.5902940119836,30.705947092458494,
54,1.9819591045379639,0.03750300407409668,26.66453060731473,27.245769035475902,0.0,-1.0,-1.0,246,263.68936729497335,-114.0306986549604,0.0,-2.0,5.0,1369,1363.872235209587,31.401229734021367,
55,2.018862247467041,0.03690314292907715,27.097962954588038,27.243067261773593,-3.0,-2.0,3.0,255,261.9514938359787,-100.6431250462882,0.0,-5.0,11.0,1363,1363.6977881676698,24.175551891335584,
56,2.0545480251312256,0.03568577766418457,28.022368166117708,27.25660306549575,2.0,-4.0,0.0,283,266.16119506878294,-56.92134047403044,0.0,-2.0,12.0,1345,1359.958230534136,-1.6178106439919695,
57,2.0905191898345947,0.03597116470336914,27.800045070721264,27.26595396835842,-3.0,-2.0,-6.0,297,272.32895605502637,-11.244265698623678,1.0,-3.0,13.0,1341,1356.1665844273089,-22.375835047597224,
58,2.1275081634521484,0.03698897361755371,27.035083761433,27.26194004627824,0.0,0.0,-2.0,264,270.6631648440211,-18.0023735426163,1.0,-3.0,5.0,1377,1360.3332675418471,4.628657363700373,
59,2.1635520458221436,0.03604388236999512,27.74395914776523,27.269970285175262,-1.0,-1.0,1.0,297,275.93053187521684,14.825624311863082,0.0,-5.0,11.0,1382,1364.6666140334778,27.747763498342888,
60,2.199921131134033,0.03636908531188965,27.495879850271727,27.273705020993507,0.0,-1.0,0.0,264,273.5444255001735,-1.2611193901415092,0.0,-3.0,12.0,1368,1365.3332912267824,25.864385999878365,
61,2.2362000942230225,0.03627896308898926,27.564183616468963,27.278417596702017,-3.0,-2.0,-8.0,274,273.6355404001388,-0.5065939455452332,0.0,-6.0,7.0,1355,1363.266632981426,9.298359330404054,
62,2.275158166885376,0.038958072662353516,25.668620947112032,27.250852667037282,-1.0,-2.0,2.0,274,273.70843232011106,-0.031068143661059866,0.0,-4.0,11.0,1369,1364.413306385141,13.325392454341674,
63,2.3128509521484375,0.03769278526306152,26.530276099813403,27.239109351806036,0.0,-2.0,0.0,297,278.36674585608887,24.692414338869032,1.0,-3.0,11.0,1424,1376.3306451081128,73.89437130256158,
64,2.3494551181793213,0.03660416603088379,27.31929472607781,27.24035862817245,-4.0,0.0,0.0,297,282.0933966848711,40.11582593763198,0.0,-4.0,12.0,1378,1376.6645160864905,60.93972097380623,
65,2.3869729042053223,0.03751778602600098,26.65402482190632,27.231142794073726,-1.0,-2.0,-8.0,274,280.4747173478969,23.463796904822168,0.0,-5.0,9.0,1377,1376.7316128691925,49.10945664136702,
66,2.423868179321289,0.0368952751159668,27.103741518578353,27.22920353634114,-2.0,0.0,2.0,255,275.37977387831756,-8.847368646391676,-1.0,-5.0,11.0,1377,1376.7852902953541,39.57853712990685,
67,2.4583182334899902,0.03445005416870117,29.027530554901933,27.254404693115095,-3.0,-2.0,2.0,255,271.3038191026541,-30.740875275307427,0.0,-4.0,14.0,1345,1370.4282322362833,-5.2431097058672975,
68,2.495479106903076,0.03716087341308594,26.91002412359493,27.24927642627669,-2.0,-1.0,-9.0,269,270.84305528212326,-27.072533325398744,1.0,-5.0,11.0,1374,1371.1425857890267,-0.34983349727353685,
69,2.5317721366882324,0.03629302978515625,27.553500105108263,27.2536374818698,-1.0,0.0,-2.0,269,270.4744442256986,-23.689331616707076,-2.0,-3.0,5.0,1345,1365.9140686312214,-29.092656409248566,
70,2.5660481452941895,0.03427600860595703,29.174925572465987,27.279301102892877,0.0,-1.0,4.0,274,271.1795553805589,-14.837152200692842,0.0,-6.0,11.0,1355,1363.7312549049773,-36.01081072774489,
71,2.602241039276123,0.036192893981933594,27.62973307686227,27.28417503543422,-4.0,0.0,-5.0,307,278.34364430444714,27.718651180633255,-1.0,-3.0,15.0,1359,1362.7850039239818,-34.03758098792087,
72,2.637465238571167,0.035224199295043945,28.389573645771993,27.298937990555515,0.0,0.0,-5.0,316,285.8749154435577,64.93683627451796,0.0,-5.0,11.0,1345,1359.2280031391854,-47.42641193794594,
73,2.674253225326538,0.036787986755371094,27.182786779001944,27.297340172820164,0.0,-1.0,1.0,293,287.2999323548462,59.69665519081971,0.0,-3.0,13.0,1331,1353.5824025113484,-68.63376117153521,
74,2.7086620330810547,0.0344088077545166,29.062326341973794,27.3197612312771,-1.0,-1.0,-1.0,293,288.439945883877,54.38361319564741,-4.0,-5.0,14.0,1363,1355.465922009079,-43.95911727432528,
75,2.7441070079803467,0.03544497489929199,28.212743917614535,27.331295675382478,0.0,0.0,-7.0,307,292.1519567071016,64.45209271152778,1.0,-4.0,12.0,1378,1359.9727376072633,-9.737366948362762,
76,2.78637433052063,0.0422673225402832,23.658938865761893,27.27558862695936,-4.0,-2.0,-5.0,264,286.5215653656813,24.9198572618266,2.0,-5.0,6.0,1331,1354.1781900858107,-35.20846267165011,
77,2.8179802894592285,0.03160595893859863,31.639603213517898,27.324534627875742,0.0,0.0,0.0,274,284.01725229254504,4.088791418169997,1.0,-3.0,14.0,1363,1355.9425520686486,-17.00202752491838,
78,2.8520991802215576,0.0341188907623291,29.309276405436567,27.348277556722547,0.0,-1.0,-2.0,311,289.41380183403606,34.9048255639745,0.0,-4.0,12.0,1368,1358.354041654919,0.5341809466312863,
79,2.88541316986084,0.03331398963928223,30.017419433331664,27.379094552275188,-1.0,-2.0,2.0,363,304.1310414672289,116.2785714452599,0.0,-2.0,9.0,1386,1363.8832333239352,33.62175784853351,
80,2.9177491664886475,0.03233599662780762,30.925287737692347,27.418395288679204,1.0,-2.0,0.0,377,318.70483317378313,183.16259754708472,2.0,-3.0,13.0,1368,1364.7065866591483,31.989894039077825,
81,2.9502410888671875,0.03249192237854004,30.776880122687682,27.45538332635107,-2.0,-2.0,1.0,311,317.1638665390265,137.04484895947462,1.0,-4.0,10.0,1396,1370.9652693273188,64.11646047210711,
82,2.9873390197753906,0.037097930908203125,26.955681233933163,27.449177832573334,-2.0,-2.0,-10.0,321,317.9310932312212,113.77210279737274,0.0,-5.0,9.0,1382,1373.172215461855,63.19111567829019,
83,3.0257821083068848,0.03844308853149414,26.01247813845028,27.430924312803118,-1.0,-1.0,2.0,316,317.544874584977,89.00838141948022,0.0,-3.0,6.0,1396,1377.7377723694842,74.30518239254276,
84,3.06181001663208,0.03602790832519531,27.756260257292602,27.434752497282,-3.0,-3.0,0.0,311,316.2358996679816,63.940255442305734,0.0,-5.0,13.0,1396,1381.3902178955875,79.7197916336556,
85,3.0983569622039795,0.036546945571899414,27.36206772827796,27.433895137613924,0.0,0.0,-2.0,358,324.5887197343853,96.86229002965601,0.0,-3.0,13.0,1368,1378.7121743164703,49.120471348707376,
86,3.1395180225372314,0.04116106033325195,24.294806593992192,27.392739708019985,0.0,-1.0,-7.0,349,329.4709757875082,101.21252533431874,-1.0,-1.0,7.0,1382,1379.3697394531764,42.491460642811376,
87,3.1782662868499756,0.03874826431274414,25.80760758543459,27.373414354851594,-2.0,-1.0,3.0,330,329.57678063000657,81.5161342386222,-1.0,-4.0,7.0,1386,1380.6957915625412,40.83761500951406,
88,3.211820125579834,0.0335538387298584,29.802849326748856,27.398794627116065,7.0,14.0,-146.0,330,329.66142450400525,65.7174331155408,3.0,3.0,12.0,1336,1371.756633250033,-20.61238565151603,
89,3.2495651245117188,0.037744998931884766,26.4935760577081,27.388280151293532,59.0,46.0,-179.0,293,322.3291396032042,13.722256953201295,1.0,11.0,18.0,1345,1366.4053066000265,-44.84506444353039,
90,3.2884390354156494,0.038873910903930664,25.724193340652196,27.368608336880495,26.0,-24.0,-55.0,363,330.4633116825634,52.826808609675176,1.0,-6.0,12.0,1322,1357.5242452800214,-81.56767924802398,
91,3.325819253921509,0.037380218505859375,26.752117563016636,27.361679349441776,13.0,-15.0,-62.0,339,332.17064934605077,51.396426466416095,-6.0,-3.0,6.0,1313,1348.6193962240172,-112.89885716384758,
92,3.361495018005371,0.035675764083862305,28.03023356834965,27.368774758616347,6.0,-22.0,-80.0,382,342.1365194768406,96.98627466870849,3.0,252.0,14.0,1341,1347.095516979214,-98.8620239634375,
93,3.3993680477142334,0.037873029708862305,26.40401382427558,27.35802616681476,8.0,22.0,-183.0,429,359.5092155814725,169.33080135729477,0.0,1.0,15.0,1345,1346.6764135833712,-81.3028215422765,
94,3.4369542598724365,0.037586212158203125,26.605500862681417,27.349796620071643,32.0,16.0,-241.0,429,373.407372465178,209.4181260776575,-5.0,-4.0,9.0,1238,1324.9411308666972,-180.69787384763993,
95,3.4722650051116943,0.03531074523925781,28.319991357424513,27.359662888675192,-13.0,20.0,-274.0,466,391.9258979721424,272.4233973240215,0.0,-1.0,13.0,1327,1325.352904693358,-142.22601283566308,
96,3.508207082748413,0.03594207763671875,27.822542984504352,27.364405160709985,17.0,-5.0,-240.0,457,404.940718377714,290.35979789314115,3.0,-2.0,16.0,1317,1323.6823237546864,-123.07677226358672,
97,3.5460469722747803,0.03783988952636719,26.427138464640354,27.35440358190595,45.0,56.0,-369.0,457,415.3525747021712,287.31895206658714,5.0,-6.0,15.0,1350,1328.945859003749,-70.64138284277048,
98,3.5832080841064453,0.03716111183166504,26.909851474032013,27.349793174079238,60.0,86.0,-307.0,471,426.48205976173693,289.7537196403443,0.0,11.0,13.0,1299,1322.9566872029993,-88.74665099634385,
99,3.617176055908203,0.03396797180175781,29.43949688359818,27.369417045182505,21.0,65.0,44.0,583,457.7856478093896,416.11535226713795,4.0,2.0,15.0,1299,1318.1653497623995,-99.2082335272362,
100,3.651078224182129,0.03390216827392578,29.496638442712875,27.38916940690878,30.0,-73.0,24.0,569,480.0285182475117,464.1102632619893,1.0,-13.0,8.0,1336,1321.7322798099196,-58.32409762935889,
101,3.6861612796783447,0.03508305549621582,28.503788676783397,27.399777800501795,-9.0,33.0,-34.0,551,494.2228145980094,452.20645532763615,-4.0,4.0,23.0,1317,1320.785823847936,-52.054794249940144,
