Index,Time,Difference,Hz,AveHz,0x6103 Linear-Acceleration-X,0x6103 Linear-Acceleration-Y,0x6103 Linear-Acceleration-Z,0x6103 Range,0x6103 Smoothed Range,0x6103 Velocity,0x6104 Linear-Acceleration-X,0x6104 Linear-Acceleration-Y,0x6104 Linear-Acceleration-Z,0x6104 Range,0x6104 Smoothed Range,0x6104 Velocity,
0,1.1920928955078125e-06,1.1920928955078125e-06,838860.8,0.0,-1.0,-4.0,4.0,241,255.0,-5872025.6,0.0,0.0,-7.0,1308,1310.5,-1048576.0,
1,0.03429818153381348,0.03429698944091797,29.1570781080555,29.156064703142704,0.0,-5.0,-3.0,194,224.5,-2936457.445441148,-1.0,1.0,0.0,1317,1313.75,-524240.6197480744,
2,0.0711061954498291,0.036808013916015625,27.167996683594154,28.12694431684443,0.0,-5.0,-1.0,278,251.25,-1467865.3507649307,-2.0,2.0,-1.0,1345,1329.375,-261908.05989994662,
3,0.10745024681091309,0.036344051361083984,27.514819139584617,27.91989864182711,-1.0,-6.0,-2.0,269,260.125,-733810.5783725334,0.0,0.0,-6.0,1345,1337.1875,-130846.5501877093,
4,0.14212918281555176,0.03467893600463867,28.835948134805506,28.14341095024097,0.0,-4.0,4.0,213,236.5625,-367245.0127002299,-2.0,0.0,-3.0,1382,1359.59375,-65100.22236240691,
5,0.17734408378601074,0.035214900970458984,28.39706977562931,28.193779534439763,-1.0,-5.0,0.0,199,217.78125,-183889.1725834767,-3.0,0.0,1.0,1374,1366.796875,-32447.837359589663,
6,0.21428132057189941,0.03693723678588867,27.072950957231193,28.000574123710308,0.0,-7.0,-8.0,236,226.890625,-91821.27746042534,-3.0,0.0,0.0,1317,1341.8984375,-16560.955768469423,
7,0.2508370876312256,0.03655576705932617,27.35546482657866,27.906559058328828,-1.0,-7.0,-1.0,297,261.9453125,-45431.17009475619,0.0,2.0,-7.0,1303,1322.44921875,-8546.499093944742,
8,0.28867626190185547,0.03783917427062988,26.42763800414595,27.712704700048562,0.0,-6.0,-1.0,274,267.97265625,-22635.94081800232,0.0,0.0,-5.0,1299,1310.724609375,-4428.176413123629,
9,0.3256680965423584,0.03699183464050293,27.032992813637975,27.635497905854603,-2.0,-5.0,1.0,250,258.986328125,-11439.434080813218,-3.0,0.0,1.0,1289,1299.8623046875,-2360.908508840181,
10,0.36334824562072754,0.03768014907836914,26.539173131192975,27.521806202521926,0.0,-7.0,-7.0,316,287.4931640625,-5341.443113222696,0.0,3.0,0.0,1350,1324.93115234375,-847.8010103457307,
11,0.40052032470703125,0.03717207908630371,26.901911988249708,27.46427414899899,3.0,-7.0,-4.0,203,245.24658203125,-3238.9784724158776,-1.0,0.0,-7.0,1341,1332.965576171875,-315.8298238226078,
12,0.4352562427520752,0.034735918045043945,28.788644615733084,27.569966427420727,1.0,-4.0,1.0,297,271.123291015625,-1247.0115468199792,0.0,0.0,0.0,1331,1331.9827880859375,-172.0614803806195,
13,0.47315311431884766,0.03789687156677246,26.387402407031097,27.475249779798723,0.0,-7.0,-1.0,274,272.5616455078125,-604.5285540153334,-2.0,0.0,-3.0,1294,1312.9913940429688,-336.5975186314646,
14,0.5127160549163818,0.03956294059753418,25.276179801011214,27.3055619494561,1.0,-6.0,-12.0,203,237.78082275390625,-741.8274417850848,-2.0,1.0,-3.0,1308,1310.4956970214844,-199.8396026376759,
15,0.5481841564178467,0.035468101501464844,28.194348094969214,27.36306736411118,-2.0,-6.0,-2.0,227,232.39041137695312,-446.90328826099176,-4.0,0.0,-9.0,1327,1318.7478485107422,16.412214491438732,
16,0.5879571437835693,0.039772987365722656,25.14269272269512,27.212867756037845,-1.0,-7.0,-1.0,288,260.19520568847656,126.09205566569165,-1.0,-1.0,0.0,1313,1315.873924255371,-27.922989984828533,
17,0.6229121685028076,0.03495502471923828,28.608190325484955,27.291166972801523,3.0,-8.0,-4.0,236,248.09760284423828,-109.99923449220262,-2.0,0.0,-2.0,1294,1304.9369621276855,-170.40484205813877,
18,0.6588432788848877,0.03593111038208008,27.831035260706276,27.32060958482501,0.0,-7.0,0.0,227,237.54880142211914,-201.79164941469446,-2.0,0.0,-6.0,1345,1324.9684810638428,193.5465338897792,
19,0.6941890716552734,0.03534579277038574,28.29191034124559,27.370064980560784,-1.0,-5.0,0.0,255,246.27440071105957,22.536111670822223,-2.0,-1.0,-9.0,1299,1311.9842405319214,-86.90121754425383,
20,0.7350151538848877,0.04082608222961426,24.494145540975374,27.21032334407114,1.0,-6.0,2.0,260,253.13720035552979,95.31726249051485,0.0,0.0,-1.0,1317,1314.4921202659607,-12.736423169716218,
21,0.7764401435852051,0.04142498970031738,24.14001807204646,27.04651501277703,-2.0,-7.0,-5.0,269,261.0686001777649,143.3906987679482,0.0,1.0,0.0,1322,1318.2460601329803,38.94187653075694,
22,0.8128452301025391,0.036405086517333984,27.46868901201095,27.065423016906596,0.0,-5.0,0.0,274,267.53430008888245,160.49749943571157,0.0,0.0,-6.0,1359,1338.6230300664902,299.33526332071796,
23,0.849393367767334,0.03654813766479492,27.361175258000966,27.078148797484094,-2.0,-4.0,1.0,180,223.76715004444122,-518.5115817367348,-1.0,0.0,-8.0,1322,1330.311515033245,35.96122191829471,
24,0.8846902847290039,0.03529691696166992,28.331086283992814,27.128137851487338,2.0,-5.0,-1.0,227,225.3835750222206,-236.3582531098329,0.0,2.0,-2.0,1322,1326.1557575166225,-40.88795143024513,
25,0.9207601547241211,0.03606986999511719,27.72397017608799,27.151478994538508,-2.0,-6.0,-8.0,264,244.6917875111103,149.47102704285734,-3.0,0.0,-2.0,1313,1319.5778787583113,-111.62643297379476,
26,0.9568030834197998,0.03604292869567871,27.744693236315527,27.173825472082466,2.0,-6.0,2.0,297,270.84589375555515,437.554340832492,-2.0,1.0,-10.0,1341,1330.2889393791556,92.77432909355574,
27,0.994232177734375,0.037429094314575195,26.71718400652275,27.156634641947267,-4.0,-5.0,0.0,241,255.92294687777758,19.427611589672182,-1.0,-1.0,3.0,1341,1335.6444696895778,117.92950892480754,
28,1.0309782028198242,0.03674602508544922,27.213827826944538,27.15867311589839,1.0,-6.0,-5.0,241,248.4614734388888,-91.81382095578354,-1.0,0.0,0.0,1345,1340.322234844789,122.61470223680132,
29,1.0654821395874023,0.034503936767578125,28.98220011055832,27.217725124167703,1.0,-4.0,-5.0,264,256.2307367194444,66.67826107644592,-1.0,0.0,-4.0,1322,1331.1611174223945,-71.4473180676785,
30,1.1018931865692139,0.03641104698181152,27.464192405660068,27.22586940881823,2.0,-7.0,0.0,246,251.1153683597222,-36.90559989039512,-1.0,0.0,-11.0,1331,1331.0805587111972,-36.82989900597558,
31,1.1376943588256836,0.03580117225646973,27.932046270336507,27.24809151026984,0.0,-6.0,0.0,246,248.5576841798611,-54.173476373591505,-2.0,1.0,0.0,1341,1336.0402793555986,50.85262376069357,
32,1.1753761768341064,0.03768181800842285,26.537997709571084,27.225326351426048,2.0,-6.0,-5.0,260,254.27884208993055,48.82729956996303,-3.0,0.0,-1.0,1341,1338.5201396777993,58.33157565565588,
33,1.2108302116394043,0.03545403480529785,28.205534447395852,27.254027594273214,2.0,-7.0,-1.0,199,226.63942104496527,-365.3786714099414,-3.0,0.0,-3.0,1499,1418.7600698388997,1160.7708449356044,
34,1.2470052242279053,0.03617501258850098,27.643390518622017,27.26532282256589,-2.0,-6.0,-2.0,232,229.31971052248264,-145.64319133998777,-1.0,0.0,-10.0,1313,1365.8800349194498,-150.50630549055802,
35,1.28623628616333,0.039231061935424805,25.490005894972256,27.21117447588133,0.0,-6.0,0.0,213,221.15985526124132,-176.81897502557467,-2.0,0.0,-1.0,1322,1343.940017459725,-354.87873993737014,
36,1.3222782611846924,0.036041975021362305,27.74542736371394,27.225736863998563,0.0,-6.0,-5.0,227,224.07992763062066,-47.900159602086056,0.0,0.0,-2.0,1313,1328.4700087298625,-392.05037173389474,
37,1.3574812412261963,0.035202980041503906,28.40668599138515,27.25636191228569,0.0,-6.0,-4.0,269,246.53996381531033,295.05751782577073,-1.0,1.0,-10.0,1313,1320.7350043649312,-305.8881059352448,
38,1.3913052082061768,0.03382396697998047,29.564834916965065,27.312483110009893,-1.0,-5.0,2.0,260,253.26998190765516,247.01469585706695,-1.0,0.0,-1.0,1336,1328.3675021824656,-40.117283977872276,
39,1.4249892234802246,0.03368401527404785,29.68767208612623,27.368628027060463,1.0,-7.0,-3.0,175,214.13499095382758,-457.4060413368413,-1.0,1.0,0.0,1322,1325.1837510912328,-67.3177211891192,
40,1.4616851806640625,0.03669595718383789,27.250958327377628,27.365673901015732,0.0,-7.0,-4.0,166,190.0674954769138,-556.6341788112843,-1.0,1.0,0.0,1308,1316.5918755456164,-150.72728181836334,
41,1.5061981678009033,0.04451298713684082,22.465353693874164,27.2208537206371,-3.0,-3.0,0.0,208,199.0337477384569,-177.6020752236097,-3.0,0.0,-4.0,1331,1323.7959377728082,5.557262074089621,
42,1.5413422584533691,0.03514409065246582,28.454285811200435,27.248977162375414,5.0,-5.0,0.0,246,222.51687386922845,245.2967537209167,-3.0,-1.0,-2.0,1350,1336.8979688864042,189.18310004379563,
43,1.578174352645874,0.03683209419250488,27.150234650613328,27.246672668269344,0.0,-5.0,-1.0,250,236.25843693461422,309.191707706171,-2.0,1.0,0.0,1345,1340.948984443202,149.5845614920717,
44,1.6153590679168701,0.037184715270996094,26.892770126439434,27.238526018083018,-1.0,-5.0,-4.0,241,238.6292184673071,186.47429524244427,-2.0,0.0,-4.0,1317,1328.974492221601,-86.22135260214276,
45,1.6521363258361816,0.03677725791931152,27.190716670448285,27.23746176165247,-1.0,-6.0,-2.0,274,256.3146092336535,333.676372388166,-1.0,0.0,-7.0,1317,1322.9872461108005,-124.50943261858087,
46,1.6914591789245605,0.039322853088378906,25.43050469284311,27.195453826587208,0.0,-7.0,1.0,246,251.15730461682676,101.26175656376576,-1.0,1.0,-2.0,1294,1308.4936230554003,-246.5447908726164,
47,1.727588176727295,0.036128997802734375,27.67859782493929,27.205557801996402,-2.0,-5.0,0.0,255,253.07865230841338,77.22098330053362,-1.0,0.0,-2.0,1317,1312.7468115277002,-64.41124883708079,
48,1.775069236755371,0.04748106002807617,21.061029374843084,27.04119873528914,0.0,-4.0,-2.0,246,249.5393261542067,1.3395655998180516,-3.0,2.0,1.0,1331,1321.87340576385,63.902110231373044,
49,1.8147811889648438,0.039711952209472656,25.18133570279292,27.000500279567994,-4.0,-2.0,-6.0,236,242.76966307710336,-84.56479646976152,-2.0,0.0,-5.0,1317,1319.4367028819252,1.2713384768292038,
50,1.8501150608062744,0.035333871841430664,28.301455455766156,27.02534618479899,-2.0,-5.0,1.0,213,227.88483153855168,-252.91359661233255,1.0,-1.0,-7.0,1270,1294.7183514409626,-349.1469918847732,
51,1.8882880210876465,0.03817296028137207,26.196553597861456,27.00859160808752,-4.0,-7.0,1.0,236,231.94241576927584,-73.30943691716482,-2.0,1.0,-3.0,1308,1301.3591757204813,-87.59014135619078,
52,1.9253230094909668,0.03703498840332031,27.001493536591646,27.008455071519766,0.0,-5.0,-3.0,213,222.47120788463792,-164.52309769896573,-2.0,0.0,0.0,1341,1321.1795878602406,223.79529446405206,
53,1.957712173461914,0.032389163970947266,30.874523371365477,27.072416833511138,0.0,-6.0,4.0,232,227.23560394231896,-8.712320132825454,-1.0,0.0,-3.0,1336,1328.5897939301203,226.29093747759325,
54,1.9910802841186523,0.03336811065673828,29.968733030380978,27.1209556092325,0.0,-6.0,0.0,283,255.11780197115948,413.4409144468554,-3.0,0.0,-1.0,1270,1299.2948969650602,-325.8200044104063,
55,2.0316481590270996,0.040567874908447266,24.65004642852945,27.071616586573725,0.0,-6.0,-4.0,246,250.55890098557973,150.53189674462288,-1.0,0.0,-1.0,1378,1338.64744848253,322.11110878816214,
56,2.068723201751709,0.037075042724609375,26.972322255376067,27.06983706306456,-2.0,-7.0,-7.0,227,238.77945049278986,-83.59361896907686,-3.0,-1.0,-4.0,1341,1339.8237242412652,176.91899880697576,
57,2.1071062088012695,0.03838300704956055,26.053195850673955,27.051317945870057,0.0,-5.0,0.0,241,239.88972524639493,-27.33370668267262,-2.0,0.0,-8.0,1313,1326.4118621206326,-86.25143587205005,
58,2.1407861709594727,0.033679962158203125,29.691244761581153,27.092850648416302,1.0,-7.0,-1.0,227,233.44486262319748,-109.34485014139706,-3.0,0.0,0.0,1386,1356.2059310603163,399.18577872976084,
59,2.1751132011413574,0.034327030181884766,29.131561766380976,27.125025018946438,1.0,-3.0,-4.0,274,253.72243131159874,240.68619728839855,0.0,0.0,0.0,1415,1385.6029655301581,627.7836520681947,
60,2.2149744033813477,0.039861202239990234,25.087050660924696,27.08834915130616,-4.0,-5.0,-8.0,194,223.86121565579936,-254.22181633271916,-3.0,0.0,-5.0,1345,1365.301482765079,59.23966272438321,
61,2.250908374786377,0.0359339714050293,27.828819384545973,27.100170172759352,-1.0,-4.0,1.0,185,204.43060782789968,-397.47634605364226,0.0,0.0,-7.0,1299,1332.1507413825395,-431.6531658370517,
62,2.282953977584839,0.032045602798461914,31.205529391633,27.15779670056707,1.0,-5.0,-3.0,194,199.21530391394984,-280.1113328133513,-1.0,2.0,-6.0,1336,1334.0753706912697,-185.79704468773784,
63,2.3170182704925537,0.034064292907714844,29.35625297460735,27.190117921084585,3.0,-7.0,-59.0,189,194.1076519569749,-215.02642788427787,-1.0,-6.0,-4.0,1391,1362.5376853456348,324.8749322743401,
64,2.35739803314209,0.04037976264953613,24.764880583355474,27.148576142102204,0.0,-9.0,-95.0,269,231.55382597848745,356.1618000310142,0.0,-6.0,-9.0,1382,1372.2688426728173,282.9329407099293,
65,2.3918402194976807,0.03444218635559082,29.034161469185456,27.175728324215108,-15.0,-17.0,-51.0,246,238.77691298924373,282.939037303644,0.0,2.0,0.0,1341,1356.6344213364086,-85.49968642431884,
66,2.42657732963562,0.03473711013793945,28.787656659665885,27.198803513882122,-8.0,2.0,-54.0,232,235.38845649462186,92.6966575651274,-1.0,-1.0,-4.0,1363,1359.8172106682043,3.0626800397312266,
67,2.460825204849243,0.03424787521362305,29.19889171992259,27.22663920540614,-2.0,1.0,-61.0,278,256.69422824731095,357.40078999064065,-1.0,0.0,-7.0,1369,1364.408605334102,68.5631578663545,
68,2.4947073459625244,0.03388214111328125,29.51407340689034,27.257706243601007,-6.0,-5.0,-124.0,288,272.3471141236555,409.69060638737545,-2.0,0.0,-1.0,1363,1363.704302667051,23.88815862517096,
69,2.528632164001465,0.03392481803894043,29.476945133564314,27.28748015718115,21.0,2.0,-178.0,260,266.17355706182775,113.85650179847516,-2.0,4.0,2.0,1331,1347.3521513335254,-229.06165452445225,
70,2.561352252960205,0.032720088958740234,30.562264095950102,27.329314005560782,50.0,35.0,-181.0,269,267.5867785309139,78.52387478137595,0.0,8.0,0.0,1322,1334.6760756667627,-308.23561337615035,
71,2.594999074935913,0.03364682197570801,29.720488928255094,27.360318038554,-10.0,-36.0,-161.0,358,312.79338926545694,711.0432243006504,-2.0,-18.0,-6.0,1303,1318.8380378333813,-389.474920724223,
72,2.628570318222046,0.03357124328613281,29.78739844327027,27.39131591834321,-53.0,16.0,-178.0,330,321.39669463272844,483.6566546023462,0.0,11.0,0.0,1345,1331.9190189166907,0.08673741659652023,
73,2.6612143516540527,0.032644033432006836,30.633469423527778,27.43108609594997,-146.0,-56.0,-218.0,386,353.6983473163642,736.5841722079584,0.0,-10.0,-14.0,1322,1326.9595094583453,-75.9201219656611,
74,2.699970245361328,0.03875589370727539,25.802527160205223,27.40770944684867,-2.0,-34.0,-223.0,471,412.3491736581821,1124.9618559305973,-3.0,10.0,2.0,1331,1328.9797547291728,-11.896344247429894,
75,2.7338953018188477,0.03392505645751953,29.476737975430805,27.43338413512136,-166.0,-69.0,-89.0,490,451.174586829091,1134.7041933786597,-3.0,12.0,6.0,1345,1336.9898773645864,112.10797091386215,
76,2.771226167678833,0.03733086585998535,26.7874847519112,27.424683299543634,0.0,153.0,4.0,541,496.0872934145455,1168.9013181017917,4.0,-1.0,-6.0,1555,1445.9949386822932,1516.0396944215393,
77,2.8049123287200928,0.033686161041259766,29.68578101776488,27.45183840920112,75.0,-55.0,34.0,569,532.5436467072727,1125.5683193279817,0.0,0.0,-11.0,1299,1372.4974693411466,-332.89504289981335,
78,2.8398501873016357,0.03493785858154297,28.622246485601202,27.466237602524348,-27.0,-38.0,21.0,504,518.2718233536364,358.53833675062106,5.0,0.0,-1.0,1327,1349.7487346705734,-492.00746693825045,
79,2.8755581378936768,0.035707950592041016,28.004967617012753,27.472927415011984,-61.0,-47.0,20.0,522,520.1359116768182,205.37103493828974,-3.0,4.0,0.0,1369,1359.3743673352867,-111.22096793484724,
80,2.911351203918457,0.03579306602478027,27.938372178222437,27.478649739106054,37.0,47.0,16.0,588,554.067955838409,576.6885567463473,-5.0,11.0,-14.0,1382,1370.6871836676432,102.42035257120148,
81,2.945303201675415,0.03395199775695801,29.453347845932377,27.50141308165615,-18.0,-65.0,23.0,770,662.0339779192045,1878.324680316816,0.0,0.0,7.0,1400,1385.3435918338216,267.05032023080855,
82,2.978443145751953,0.033139944076538086,30.17506600766912,27.531161747019972,29.0,55.0,11.0,447,554.5169889596023,-683.003779242507,-1.0,7.0,4.0,1532,1458.671795916911,1239.8668593309303,
83,3.0202150344848633,0.041771888732910156,23.939544759252072,27.481486931329286,-38.0,-29.0,25.0,616,585.2584944798011,26.466934062544283,-4.0,-7.0,-9.0,1355,1406.8358979584555,-0.5304699907686654,
84,3.055166244506836,0.034951210021972656,28.611312723403096,27.494412178398253,-79.0,-144.0,49.0,630,607.6292472399006,333.2617685698411,6.0,11.0,2.0,1447,1426.9179489792277,287.0216859459415,
85,3.0893471240997314,0.03418087959289551,29.256122484567364,27.51390393682934,8.0,-50.0,13.0,626,616.8146236199502,300.99513250571295,-3.0,1.0,2.0,1386,1406.4589744896139,-155.7642888154204,
86,3.126721143722534,0.037374019622802734,26.75655468939384,27.504851263330842,40.0,23.0,26.0,532,574.4073118099751,-416.83921258403177,-2.0,-7.0,2.0,1560,1483.229487244807,949.1750671258551,
87,3.161694288253784,0.03497314453125,28.593368237347295,27.516891915584424,61.0,31.0,20.0,878,726.2036559049875,1961.7647756038677,0.0,-8.0,12.0,1396,1439.6147436224035,-148.9586789235109,
88,3.1960761547088623,0.034381866455078125,29.085099301009652,27.53376194442279,-27.0,23.0,24.0,1247,986.6018279524937,4767.735733703492,-5.0,-13.0,-4.0,1391,1415.3073718112018,-427.97050089943644,
89,3.232410192489624,0.03633403778076172,27.522402162786424,27.533634254336885,12.0,-69.0,46.0,919,952.8009139762469,1918.7266928897384,-5.0,1.0,-3.0,1372,1393.653685905601,-511.96597635002263,
90,3.2705793380737305,0.038169145584106445,26.199171731431107,27.51806047090336,-3.0,38.0,17.0,662,807.4004569881234,-945.3224247853348,-3.0,-7.0,1.0,1336,1364.8268429528005,-633.6026926727181,
91,3.3102641105651855,0.03968477249145508,25.198582156803845,27.490253635521217,120.0,326.0,-4.0,808,807.7002284940618,-468.8843039323394,-3.0,24.0,7.0,1345,1354.9134214764003,-441.70342910040506,
92,3.3515031337738037,0.041239023208618164,24.24887696639282,27.450369678278562,-41.0,-30.0,25.0,841,824.3501142470309,-32.571636402047346,-3.0,15.0,-2.0,1327,1340.9567107382002,-390.06899532327725,
93,3.3850841522216797,0.03358101844787598,29.7787275735007,27.47346766518722,44.0,-18.0,24.0,1121,972.6750571235154,2192.1782149359196,-2.0,9.0,-3.0,1369,1354.9783553691,13.738870136363346,
94,3.424518346786499,0.039434194564819336,25.35870228961481,27.44911560722335,-42.0,-50.0,20.0,803,887.8375285617577,20.40429257580604,-3.0,5.0,-8.0,1336,1345.48917768455,-113.44718086969807,
95,3.4603331089019775,0.035814762115478516,27.92144749630537,27.454004285195857,34.0,61.0,14.0,859,873.4187642808788,-191.09423862717895,-6.0,38.0,6.0,1345,1345.2445888422749,-60.13822769373229,
96,3.495573043823242,0.03523993492126465,28.376896899334945,27.463308246307196,-24.0,-31.0,28.0,747,810.2093821404394,-992.3901793485458,0.0,-30.0,-1.0,1359,1352.1222944211374,67.51485721081568,
97,3.5291712284088135,0.03359818458557129,29.763512890200893,27.4852065037757,-27.0,-31.0,20.0,794,802.1046910702197,-616.8071282440629,-6.0,-16.0,8.0,1350,1351.0611472105688,17.965694265328125,
98,3.569796085357666,0.04062485694885254,24.6154712928348,27.45254845282883,-5.0,12.0,4.0,831,816.5523455351099,-130.5856522573808,-6.0,-12.0,0.0,1359,1355.0305736052844,57.83749786673515,
99,3.605940103530884,0.03614401817321777,27.667095429389377,27.454698957162556,90.0,269.0,-8.0,803,809.776172767555,-159.0313354316766,-3.0,65.0,-25.0,1341,1348.015286802642,-68.12755578325292,
100,3.6424331665039062,0.03649306297302246,27.40246826470146,27.45417566466494,74.0,92.0,14.0,897,853.3880863837775,518.0213716998813,-2.0,15.0,-7.0,1355,1351.507643401321,13.785817540533913,
101,3.675711154937744,0.03327798843383789,30.049893249652524,27.47767594967909,-38.0,-4.0,13.0,1032,942.6940431918888,1600.8279201708528,1.0,25.0,12.0,1345,1348.2538217006604,-41.99558860886054,
102,3.711059331893921,0.03534817695617676,28.29000209090725,27.485413429901914,39.0,4.0,26.0,975,958.8470215959444,1028.8978564979827,-1.0,10.0,0.0,1355,1351.6269108503302,26.714555244057262,
