Index,Time,Difference,Hz,AveHz,0x6030 Range,0x6030 Smoothed Range,0x6030 Velocity,
0,7.152557373046875e-07,7.152557373046875e-07,1398101.3333333333,0.0,35,17.5,12233386.666666666,
1,0.016162872314453125,0.01616215705871582,61.872929236306774,61.87019117299976,21,19.25,6116747.472146415,
2,0.031790971755981445,0.01562809944152832,63.9873072052968,62.910942620799304,25,22.125,3058465.717827315,
3,0.047312021255493164,0.015521049499511719,64.42863287250384,63.40883184422574,35,28.5625,1529440.2385757158,
4,0.06257295608520508,0.015260934829711914,65.52678529581777,63.925380072394745,30,29.28125,764743.6679763236,
5,0.07925677299499512,0.01668381690979004,59.938322591708705,63.086091081651006,58,43.640625,382802.1724136445,
6,0.09531092643737793,0.016054153442382812,62.28917666627064,62.951858976443546,39,41.3203125,191328.82102920552,
7,0.11152076721191406,0.016209840774536133,61.69092059009546,62.76857822093759,25,33.16015625,95412.706738992,
8,0.12814688682556152,0.01662611961364746,60.14632537463254,62.42836012777983,30,31.580078125,47658.8354229842,
9,0.1441049575805664,0.015958070755004883,62.66421645526123,62.4544786737699,25,28.2900390625,23726.333851512718,
10,0.16054987907409668,0.016444921493530273,60.80904675607104,62.28593915903741,16,22.14501953125,11676.330535759984,
11,0.17784571647644043,0.01729583740234375,57.81737979708866,61.85136318117165,39,30.572509765625,6081.792969688549,
12,0.1938478946685791,0.016002178192138672,62.491492595130964,61.90420597817865,30,30.2862548828125,3031.952237399476,
13,0.21060681343078613,0.01675891876220703,59.669720594093214,61.72639806010988,44,37.14312744140625,1720.549953560035,
14,0.22596001625061035,0.015353202819824219,65.13298962668489,61.957864193427554,63,50.071563720703125,1281.3088298143675,
15,0.24184298515319824,0.01588296890258789,62.96052118046174,62.02371340437299,53,51.53578186035156,686.7483835042597,
16,0.25829577445983887,0.016452789306640625,60.77996753999536,61.94448993004243,11,31.26789093017578,-272.56668466799533,
17,0.2755417823791504,0.017246007919311523,57.98443353839773,61.696632188463155,49,40.13394546508789,120.76323262971283,
18,0.29021191596984863,0.014670133590698242,68.16570509174237,62.023642068060695,44,42.066972732543945,126.26469963870943,
19,0.30446290969848633,0.014250993728637695,70.17054522945142,62.404974119231646,63,52.53348636627197,430.35283398444597,
20,0.3206028938293457,0.016139984130859375,61.95792956747814,62.38246873294237,25,38.766743183135986,-211.30303526492662,
21,0.3369710445404053,0.01636815071105957,61.09425662389116,62.31989466229033,96,67.383371591568,768.5043022151763,
22,0.35309505462646484,0.01612401008605957,62.01931124221858,62.30616858475558,25,46.191685795784,-272.8947274504269,
23,0.3691370487213135,0.016041994094848633,62.33638998290852,62.3074819492428,21,33.595842897892,-529.0370512484355,
24,0.38458895683288574,0.015451908111572266,64.71692640024688,62.404287938066425,35,34.297921448946,-241.8003426663409,
25,0.39999890327453613,0.01540994644165039,64.89315221091067,62.500171363823576,25,29.648960724473,-271.74302929105636,
26,0.4156649112701416,0.01566600799560547,63.83247093200219,62.55038444441258,25,27.3244803622365,-210.06017722276383,
27,0.43303513526916504,0.017370223999023438,57.56978148676842,62.350598833550535,58,42.66224018111825,336.46565202339764,
28,0.45078396797180176,0.01774883270263672,56.34173338348289,62.114010234169434,21,31.831120090559125,-136.8892141816848,
29,0.47011590003967285,0.019331932067871094,51.72788712939668,61.68691592339826,21,26.415560045279562,-208.51234647318816,
30,0.48548007011413574,0.01536417007446289,65.08649638434561,61.79450372277288,35,30.70778002263978,35.42660678204187,
31,0.4995229244232178,0.014042854309082031,71.21059422750425,62.05921387050385,39,34.85389001131989,165.33678140427168,
32,0.5182857513427734,0.018762826919555664,53.29687281599045,61.74200220070585,2,18.426945005659945,-355.0840086588279,
33,0.5368878841400146,0.01860213279724121,53.75727670046012,61.465346816047635,58,38.21347250282997,354.29291247390194,
34,0.5521829128265381,0.015295028686523438,65.3807207881282,61.573799569347976,44,41.106736251414986,271.7282908932759,
35,0.5670380592346191,0.014855146408081055,67.31673808721331,61.724251891032786,67,54.05336812570749,571.6266589432961,
36,0.5828487873077393,0.015810728073120117,63.248194224534416,61.76559132307554,21,37.52668406285375,-236.8281322757976,
37,0.5985238552093506,0.015675067901611328,63.7955769172269,61.81875572370997,21,29.263342031426873,-381.99640221752236,
38,0.6157238483428955,0.017199993133544922,58.13955809375953,61.71597884712412,58,43.63167101571344,226.68594773732758,
39,0.6328399181365967,0.017116069793701172,58.42462738542972,61.626959492119084,53,48.31583550785672,250.17825640142973,
40,0.6481270790100098,0.015287160873413086,65.41437015549214,61.71629190543701,58,53.15791775392836,283.4600083846484,
41,0.662153959274292,0.014026880264282227,71.29169003790389,61.919134403327,53,53.07895887696418,138.91544830118858,
42,0.6762969493865967,0.014142990112304688,70.70640593391774,62.10289731174172,25,39.03947943848209,-426.88284198850874,
43,0.6912147998809814,0.014917850494384766,67.03378615950136,62.20931613067901,11,25.019739719241045,-683.3395381699903,
44,0.7069017887115479,0.015686988830566406,63.747097087968875,62.243441313393326,16,20.509869859620522,-485.4153249826621,
45,0.7231550216674805,0.016253232955932617,61.52622082703789,62.22732146177614,30,25.25493492981026,-96.7347018177521,
46,0.7391366958618164,0.015981674194335938,62.571667263396584,62.23476693491054,81,53.12746746490513,823.6480648782,
47,0.7558701038360596,0.016733407974243164,59.760689606041176,62.179995956281154,39,46.06373373245256,200.75723291668965,
48,0.7722377777099609,0.016367673873901367,61.09603647434123,62.15702130287126,67,56.53186686622628,420.15933833799437,
49,0.7884728908538818,0.0162351131439209,61.5948894926206,62.145446683569716,49,52.76593343311314,94.09854234441258,
50,0.8034520149230957,0.014979124069213867,66.75957788848743,62.231470045894234,16,34.38296671655657,-566.5702779955091,
51,0.8187510967254639,0.015299081802368164,65.3633997724758,62.28999289768384,49,41.69148335827828,-44.43039149943007,
52,0.834723949432373,0.01597285270690918,62.60622434510038,62.296044141732025,49,45.34574167913914,92.1744623756672,
53,0.8499200344085693,0.015196084976196289,65.80642327062773,62.358807716399944,35,40.17287083956957,-124.11683280866765,
54,0.8665339946746826,0.01661396026611328,60.19034498593651,62.31723202073899,58,49.086435419784785,206.19684716445525,
55,0.8797767162322998,0.013242721557617188,75.51317874117817,62.51586224689036,30,39.54321770989239,-257.2209287643131,
56,0.8951129913330078,0.015336275100708008,65.2048814613292,62.56193412700273,49,44.271608854946194,25.54662767585944,
57,0.9106979370117188,0.015584945678710938,64.16448415126668,62.58935886802885,49,46.6358044274731,88.62200850987837,
58,0.924875020980835,0.014177083969116211,70.53636715268318,62.711175763500115,6,26.31790221373655,-672.2645009052785,
59,0.9390678405761719,0.014192819595336914,70.45816324816477,62.82826165551588,21,23.658951106868273,-429.8046560309459,
60,0.9539637565612793,0.014895915985107422,67.13249463811262,62.895471224483366,58,40.829475553434136,361.4477421558592,
61,0.9699709415435791,0.016007184982299805,62.47194626074264,62.88848189918623,72,56.41473777671707,667.5447031141864,
62,0.986407995223999,0.016437053680419922,60.83815381044936,62.85431616551394,39,47.70736888835853,68.9022276999541,
63,1.0047130584716797,0.018305063247680664,54.62969378850437,62.704470165673484,25,36.353684444179265,-275.6730384284323,
64,1.0252509117126465,0.020537853240966797,48.69058066912772,62.42374356252968,72,54.17684222208963,296.0734315677518,
65,1.0395958423614502,0.014344930648803711,69.71103761197999,62.524297762053365,53,53.588421111044816,127.52699268201178,
66,1.0560908317565918,0.0164949893951416,60.62447062224471,62.49462452980721,11,32.29421055552241,-581.7116247825747,
67,1.072685956954956,0.016595125198364258,60.25865957905323,62.46003274825518,11,21.647105277761206,-611.6459586087641,
68,1.0895068645477295,0.016820907592773438,59.449824243111465,62.41355810844552,49,35.3235526388806,100.7082166399747,
69,1.1067097187042236,0.01720285415649414,58.12988884885107,62.34697214079563,2,18.6617763194403,-433.9194944167544,
70,1.1233160495758057,0.01660633087158203,60.21799804743582,62.315498853981374,58,38.330888159720146,375.25752198800717,
71,1.1401078701019287,0.016791820526123047,59.55280420275451,62.274809131571395,58,48.16544407986007,480.4664525605702,
72,1.1606080532073975,0.02050018310546875,48.78005210271679,62.036447016737874,21,34.58272203993003,-91.04971812196837,
73,1.174616813659668,0.014008760452270508,71.383903194513,62.147927009966104,21,27.791361019965017,-287.9217878650701,
74,1.1886937618255615,0.014076948165893555,71.03812475653338,62.253207997283454,ranging-error,27.791361019965017,-287.9217878650701,
75,1.1966140270233154,0.007920265197753906,126.2583985550873,62.67685177196963,39,33.39568050998251,209.8353079678012,
76,1.211893081665039,0.015279054641723633,65.44907544667238,62.71180283955611,30,31.697840254991256,49.35661651124051,
77,1.2285828590393066,0.016689777374267578,59.91691665952401,62.67383549548326,53,42.34892012749563,343.76824078300945,
78,1.2432420253753662,0.01465916633605957,68.21670326095796,62.739191893428654,58,50.174460063747816,438.80038823555026,
79,1.2576038837432861,0.014361858367919922,69.62887214050932,62.81787216246083,44,47.08723003187391,111.92002153893071,
80,1.2716829776763916,0.014079093933105469,71.0272979746664,62.90876059863231,21,34.04361501593695,-407.2663544324282,
81,1.2864270210266113,0.014744043350219727,67.82400025872803,62.96509531909499,30,32.021807507968475,-272.19671368799015,
82,1.300778865814209,0.014351844787597656,69.67745365140541,63.03915458272222,25,28.510903753984238,-258.41377364038607,
83,1.319115161895752,0.01833629608154297,54.536641181671605,62.92096580916973,58,43.25545187699212,272.85217836499214,
84,1.3352940082550049,0.01617884635925293,61.80910417188582,62.907494140390305,63,53.127725938496056,441.52429712294764,
85,1.3499009609222412,0.014606952667236328,68.46054908105637,62.96758240836328,39,46.06386296924803,-21.0358201925568,
86,1.3656227588653564,0.015721797943115234,63.6059567498711,62.97493172379033,58,52.03193148462401,179.28444383835767,
87,1.382368803024292,0.016746044158935547,59.715595546570235,62.935448058191724,49,50.515965742312005,44.37882335399893,
88,1.397014856338501,0.014646053314208984,68.27777958652125,62.99145610422723,44,47.257982871156,-89.03450650972613,
89,1.412524938583374,0.015510082244873047,64.4741906723645,63.007737115960865,35,41.128991435578,-242.09813447823558,
90,1.4285237789154053,0.01599884033203125,62.50453028135431,63.00210141992298,21,31.064495717789,-435.5873559186695,
91,1.4440829753875732,0.015559196472167969,64.27067116150782,63.01576955823939,91,61.0322478588945,745.2300936959468,
92,1.4600629806518555,0.015980005264282227,62.57820216337188,63.010980498201484,44,52.51612392944725,106.15318439533382,
93,1.4751927852630615,0.015129804611206055,66.09470681857577,63.04260767070923,44,48.25806196472362,-87.6410863892014,
94,1.4892899990081787,0.014097213745117188,70.93600324719253,63.117324404649935,72,60.12903098236181,377.21900519665155,
95,1.5035529136657715,0.014262914657592773,70.11189676211491,63.183675902953816,30,45.064515491180906,-339.49137484615244,
96,1.5200629234313965,0.016510009765625,60.56931608133087,63.15528029806108,16,30.532257745590453,-609.8501438070947,
97,1.5352180004119873,0.01515507698059082,65.98448831904349,63.18320914291607,67,48.76612887279523,296.65125629844664,
98,1.5504357814788818,0.015217781066894531,65.71260261954001,63.208035554057446,16,32.38306443639762,-389.9612733504339,
99,1.5654878616333008,0.015052080154418945,66.43600019007492,63.239072257456904,6,19.19153221819881,-633.1769551530347,
100,1.5787427425384521,0.013254880905151367,75.44390682615344,63.341542168681976,39,29.095766109099404,57.018571848250474,
101,1.5937519073486328,0.015009164810180664,66.6259590488142,63.37247317747446,2,15.547883054549702,-422.81106487115085,
102,1.6104447841644287,0.0166928768157959,59.90579161608227,63.336539695722756,ranging-error,15.547883054549702,-422.81106487115085,
103,1.6176629066467285,0.007218122482299805,138.54018166804295,63.67210348756148,35,25.27394152727485,462.31942142709966,
104,1.6320469379425049,0.014384031295776367,69.52153950705276,63.72365744033754,49,37.13697076363742,643.527738578101,
105,1.648000717163086,0.015953779220581055,62.68107300306359,63.713564506664724,49,43.06848538181871,507.6607196895306,
106,1.662837028503418,0.014836311340332031,67.40219836729446,63.746475561349406,49,46.03424269090935,353.7796410730557,
107,1.6780619621276855,0.015224933624267578,65.68173134141377,63.76403399569953,58,52.017121345454676,373.3727347545904,
108,1.693572998046875,0.015511035919189453,64.47022656706324,63.77050184701324,25,38.50856067272734,-248.76361620553052,
109,1.707608938217163,0.014035940170288086,71.24567274209713,63.83194510202198,25,31.75428033636367,-364.9884313292391,
110,1.7225348949432373,0.014925956726074219,66.99738035908248,63.859373951100615,39,35.37714016818184,-61.13315659463785,
111,1.7373158931732178,0.014780998229980469,67.65442931802052,63.89166209563526,16,25.68857008409092,-358.30391827072754,
112,1.7541468143463135,0.016830921173095703,59.41445448621696,63.8487035885517,44,34.844285042045456,92.83894569371904,
113,1.7694978713989258,0.015351057052612305,65.14209390094274,63.85992423413582,72,53.42214252102273,651.5197410337939,
114,1.7840769290924072,0.014579057693481445,68.59153870055111,63.89858987638717,25,39.21107126051136,-161.61975165393062,
115,1.7991597652435303,0.015082836151123047,66.3005279630742,63.918725963968996,11,25.10553563025568,-548.4121055709184,
116,1.816983938217163,0.017824172973632812,56.1035848047084,63.842061319386225,67,46.05276781512784,313.4013558684869,
117,1.8347201347351074,0.017736196517944336,56.38187415144305,63.76994386497654,49,47.52638390756392,198.24329646987968,
118,1.8491978645324707,0.014477729797363281,69.07160266122126,63.811451582999595,49,48.263191953781956,124.56790453792135,
119,1.8644039630889893,0.015206098556518555,65.76308816381568,63.82736915171428,67,57.63159597689098,370.3315421319427,
120,1.8796718120574951,0.01526784896850586,65.49711109029015,63.84093182130959,21,39.31579798844549,-414.65015671229213,
121,1.895096778869629,0.015424966812133789,64.82996120376525,63.84898193546244,25,32.15789899422275,-439.34823540411134,
122,1.9095838069915771,0.014487028121948242,69.02726988463374,63.88826693718299,58,45.078949497111374,226.27830242588217,
123,1.9244329929351807,0.014849185943603516,67.34375903150188,63.91492998277801,53,49.03947474855569,246.49748029866333,
124,1.938302993774414,0.013870000839233398,72.09804899011603,63.97348629098363,67,58.019737374277845,446.9784475160436,
125,1.9533190727233887,0.01501607894897461,66.59528119145152,63.993641256838,0,29.009868687138923,-742.4709575155289,
126,1.9684031009674072,0.015084028244018555,66.29528822292822,64.01127895910905,58,43.50493434356946,109.24179899390094,
127,1.9836690425872803,0.015265941619873047,65.50529439325317,64.02277661920616,67,55.25246717178473,439.3836976502741,
128,1.9999048709869385,0.016235828399658203,61.59217598167347,64.00304427321733,39,47.126233585892365,-30.564355720096955,
129,2.017706871032715,0.017802000045776367,56.17346351132361,63.933964765642315,0,23.563116792946182,-677.093118550858,
130,2.036763906478882,0.019057035446166992,52.47405887578036,63.82673985260348,21,22.28155839647309,-372.17084465006883,
131,2.052145004272461,0.015381097793579102,65.01486522096322,63.83564500913176,81,51.640779198236544,768.3074693845408,
132,2.069791078567505,0.017646074295043945,56.669828273411426,63.77455259463034,58,54.82038959911827,474.2477223894306,
133,2.0842368602752686,0.014445781707763672,69.22436045552071,63.81232504564499,44,49.410194799559136,49.86522372508267,
134,2.099421977996826,0.015185117721557617,65.85395110769183,63.82709212554627,30,39.70509739977957,-294.62689296769406,
135,2.115118980407715,0.015697002410888672,63.70643093654121,63.82619665867549,30,34.85254869988978,-301.8827257917128,
136,2.130154848098755,0.015035867691040039,66.50763497978276,63.84512380467797,30,32.42627434994489,-231.62424730932864,
137,2.1506121158599854,0.02045726776123047,48.88238310568272,63.702793725411766,67,49.713137174972445,306.69940199952646,
138,2.164235830307007,0.013623714447021484,73.40142102131531,63.76384591157243,77,63.35656858748622,654.0733276424445,
139,2.1792478561401367,0.015012025833129883,66.61326133566267,63.783474471873745,21,42.17828429374311,-378.3406293288128,
140,2.194003105163574,0.0147552490234375,67.77249224405378,63.810301667536734,30,36.08914214687155,-395.5084841253032,
141,2.2074058055877686,0.013402700424194336,74.61182958285156,63.8758852781289,35,35.544571073435776,-218.06996412612193,
142,2.221242904663086,0.013837099075317383,72.26948326067853,63.92817269191831,77,56.27228553671789,639.9556246550845,
143,2.236604928970337,0.015362024307250977,65.09558766470597,63.93619103121298,21,38.636142768358944,-254.03972649494773,
144,2.2519288063049316,0.015323877334594727,65.25763539900113,63.94518316779376,ranging-error,38.636142768358944,-254.03972649494773,
145,2.2598369121551514,0.007908105850219727,126.45253097772016,64.16392228132827,30,34.318071384179476,-400.0353909834545,
146,2.274030923843384,0.014194011688232422,70.45224577552322,64.20317264342323,30,32.15903569208974,-276.07215210034377,
147,2.292090892791748,0.018059968948364258,55.37108080634728,64.13358233841905,39,35.579517846044865,-43.3381791785128,
148,2.308076858520508,0.015985965728759766,62.55486950037285,64.12264801912573,49,42.28975892302243,188.21003785393017,
149,2.3234708309173584,0.015393972396850586,64.96049065312002,64.12819907929357,11,26.644879461511216,-414.0445040873792,
150,2.3400940895080566,0.016623258590698242,60.156677136669394,64.09998669392544,39,32.822439730755605,-21.21150273906406,
151,2.355078935623169,0.014984846115112305,66.73408537652543,64.11674688094666,72,52.4112198653778,643.0139115933995,
152,2.3698787689208984,0.014799833297729492,67.56832863471607,64.13830192217459,2,27.2056099326889,-530.0435118884939,
153,2.3854269981384277,0.015548229217529297,64.31600576563315,64.13946019702144,21,24.10280496634445,-364.80176699676935,
154,2.40026593208313,0.014838933944702148,67.39028583364129,64.15955746467947,30,27.051402483172225,-83.04746876469034,
155,2.415595769882202,0.015329837799072266,65.23226227876451,64.16636505683178,58,42.52570124158611,463.18802321206215,
156,2.4315648078918457,0.015969038009643555,62.6211797727646,64.15621722015759,53,47.76285062079306,395.57224799210144,
157,2.4477550983428955,0.016190290451049805,61.765414463899155,64.14040363200034,21,34.38142531039653,-215.46851621112535,
158,2.463045835494995,0.01529073715209961,65.39907069573081,64.14821751307237,49,41.69071265519827,131.27604179348705,
159,2.478693962097168,0.01564812660217285,63.90541343531455,64.14668467803651,53,47.345356327599134,246.3191917538249,
160,2.4947328567504883,0.016038894653320312,62.348436199310264,64.135123553232,63,55.17267816379957,367.1702339348178,
161,2.5107059478759766,0.01597309112548828,62.60528986805183,64.12539076358338,39,47.08633908189978,-69.5386841294372,
162,2.525275945663452,0.014569997787475586,68.63419024398226,64.15140502890215,35,41.04316954094989,-242.15336603981547,
163,2.5439178943634033,0.018641948699951172,53.6424606727203,64.07439499567244,11,26.021584770474945,-523.974068165976,
164,2.5565779209136963,0.012660026550292969,78.9887758945386,64.14825015049335,25,25.510792385237473,-282.1604667060677,
165,2.571514844894409,0.01493692398071289,66.94818834796489,64.1645138963898,11,18.255396192618736,-383.9480487743071,
