Index,Time,Difference,Hz,AveHz,Position,Velocity
0,1.9073486328125e-06,-1504210964.3499422,-6.648003662386271e-10,0.0,2867,nan
1,0.012163877487182617,0.012161970138549805,82.22352041716492,82.2106274133166,2910,nan
2,0.024169921875,0.012006044387817383,83.2913795500129,82.74747474747475,2891,nan
3,0.036604881286621094,0.012434959411621094,80.4184369967022,81.9562827293333,2928,nan
4,0.048410892486572266,0.011806011199951172,84.70261319116281,82.62603299679881,2938,772.477402635
5,0.05888676643371582,0.010475873947143555,95.45742961833452,84.90872063128317,2881,-288.044611401
6,0.06895184516906738,0.010065078735351562,99.35342050407428,87.0172507390951,2891,-1143.84769261
7,0.07998180389404297,0.011029958724975586,90.66217063311935,87.51990651865454,2886,-1647.08580404
8,0.09044289588928223,0.010461091995239258,95.59231488023337,88.45360292082405,2895,443.65390311
9,0.10204482078552246,0.011601924896240234,86.19259381036538,88.19653884165446,2872,-574.139969165
10,0.11234879493713379,0.010303974151611328,97.0499328983294,89.00852034590694,2900,432.539434431
11,0.12530088424682617,0.012952089309692383,77.20762080073631,87.78868613833127,2891,-114.751314935
12,0.13634300231933594,0.011042118072509766,90.5623353629572,88.01331785179693,2858,-408.184905844
13,0.1480109691619873,0.011667966842651367,85.70473446535483,87.83132813469007,2867,-925.350198559
14,0.15846872329711914,0.010457754135131836,95.62282561612292,88.34550887212525,2895,120.598752121
15,0.16998672485351562,0.011518001556396484,86.82061684951356,88.24218487017797,2891,980.86648903
16,0.18220901489257812,0.0122222900390625,81.81772784019975,87.81124254160997,2881,409.380118101
17,0.1940159797668457,0.011806964874267578,84.69577157626914,87.62164859012832,2947,1462.84144444
18,0.2048778533935547,0.010861873626708984,92.06514772378067,87.85722664432342,2858,-945.799158148
19,0.21655488014221191,0.011677026748657227,85.63823835677971,87.73757482409388,2914,960.814344322
20,0.22925901412963867,0.012704133987426758,78.71453504738669,87.23757308269082,2905,-1191.72485455
21,0.24146103858947754,0.012202024459838867,81.95361378690478,86.97055277602514,2863,136.67481312
22,0.2530648708343506,0.011603832244873047,86.17842613519622,86.93423124065531,2886,-766.91336999
23,0.2644827365875244,0.011417865753173828,87.58204217999582,86.9621975965478,2900,-141.949789832
24,0.2768409252166748,0.01235818862915039,80.91800748543427,86.6923847376104,2895,904.468698195
25,0.2887899875640869,0.01194906234741211,83.68857496308712,86.56809819091154,2895,251.923599525
26,0.3013267517089844,0.012536764144897461,79.765399463705,86.28507045106404,2891,-244.273051412
27,0.3117189407348633,0.010392189025878906,96.22611727998532,86.61648835437694,2872,-659.441188333
28,0.32130980491638184,0.009590864181518555,104.26589106818804,87.14331019959619,2886,-276.754321911
29,0.3327910900115967,0.011481285095214844,87.09826397541325,87.14175610587846,2872,-603.858241583
30,0.3453366756439209,0.012545585632324219,79.7093120486507,86.87174608390919,2877,148.731019907
31,0.3573267459869385,0.011990070343017578,83.40234639093259,86.75533065507824,2905,527.529530139
32,0.3691709041595459,0.011844158172607422,84.42980796328355,86.68072060784738,2895,632.218732797
33,0.38059186935424805,0.011420965194702148,87.55827401206605,86.70705460941993,2858,-538.92768697
34,0.39019274711608887,0.00960087776184082,104.15714321189998,87.13642232279739,2900,-152.132898078
35,0.4023900032043457,0.012197256088256836,81.98565257334975,86.98029205816515,2886,-270.928479664
36,0.4144268035888672,0.012036800384521484,83.07855643148595,86.86696827581129,2886,827.547049622
37,0.4254007339477539,0.010973930358886719,91.12505431476492,86.97681279634133,2872,-795.274098854
38,0.4369027614593506,0.01150202751159668,86.94119354103186,86.97587507360151,2895,260.773130142
39,0.44943785667419434,0.01253509521484375,79.77601947656726,86.77506672134164,2952,1885.11896055
40,0.4600949287414551,0.010657072067260742,93.83440345421597,86.93858049993315,2914,1210.57716571
41,0.47086167335510254,0.010766744613647461,92.87858455678824,87.07440490506785,2910,441.710265807
42,0.48125171661376953,0.010390043258666992,96.24599004107483,87.27241597292269,2933,-597.223978357
43,0.4928886890411377,0.011636972427368164,85.93300415906903,87.24079281196715,2867,-1433.19947363
44,0.504241943359375,0.011353254318237305,88.08047208047208,87.2596986019488,error,-10000
45,0.5152339935302734,0.010992050170898438,90.97483949331945,87.33895776493627,2914,90.1462890425
46,0.5266890525817871,0.011455059051513672,87.29767306331432,87.33805985621255,2900,-726.274974026
47,0.5379629135131836,0.011273860931396484,88.7007570951233,87.36661732509594,2900,732.125741186
48,0.550757884979248,0.012794971466064453,78.15570379756271,87.15263332418489,2877,-1041.55255775
49,0.5617029666900635,0.01094508171081543,91.36523841679919,87.23471817986183,2905,142.800373147
50,0.5717058181762695,0.010002851486206055,99.97149326659516,87.45756717939138,2881,-563.081340795
51,0.5832629203796387,0.01155710220336914,86.52688038948715,87.43912602365452,2872,-153.822321324
52,0.5948867797851562,0.011623859405517578,86.02994626081963,87.41159119182281,2910,150.675872772
53,0.6058149337768555,0.010928153991699219,91.50676324286587,87.48546304327635,2914,967.48330817
54,0.6170387268066406,0.011223793029785156,89.09643979947319,87.51476634127343,2872,0.0
55,0.6290340423583984,0.011995315551757812,83.36587692796947,87.43564941857821,2881,-849.262805116
56,0.6416277885437012,0.012593746185302734,79.4044905531786,87.27801538506128,2905,-251.306411025
57,0.6511318683624268,0.009504079818725586,105.21797155256755,87.5398713679196,2910,1114.59367679
58,0.6624009609222412,0.011269092559814453,88.73828967968518,87.56025945259547,2891,299.69803717
59,0.673271894454956,0.010870933532714844,91.98842003684534,87.63175841130746,2924,600.427771708
60,0.6843018531799316,0.011029958724975586,90.66217063311935,87.68060428476362,2863,-1416.94366936
61,0.6964318752288818,0.012130022048950195,82.4400809796175,87.58932807311899,2910,558.31588387
62,0.708319902420044,0.01188802719116211,84.11824635995347,87.53107146667905,2867,-1626.34064843
63,0.7200577259063721,0.011737823486328125,85.19467013324667,87.49298526128416,2872,251.706903335
64,0.7319350242614746,0.011877298355102539,84.19423088503925,87.43945552349577,2867,-1211.1601695
65,0.741441011428833,0.009505987167358398,105.19685987309072,87.6671225331039,2914,1419.03460985
66,0.7508888244628906,0.009447813034057617,105.84460090342444,87.89583470923232,2867,-162.173916406
67,0.7624099254608154,0.011521100997924805,86.79726010388428,87.87923368062646,2867,0.0
68,0.7732648849487305,0.010854959487915039,92.12378923323595,87.93881802160017,2881,-1036.95736408
69,0.7835578918457031,0.010293006896972656,97.15334012786064,88.05986222341228,2891,734.639887903
70,0.7939658164978027,0.01040792465209961,96.08063407706052,88.16500477157976,2891,760.555294473
71,0.8043599128723145,0.010394096374511719,96.20845949169649,88.26894386924857,2886,160.79741148
72,0.8162188529968262,0.011858940124511719,84.32456775231202,88.21163556274774,2895,122.4703701
73,0.827401876449585,0.011183023452758789,89.42125572966634,88.22798458379859,2858,-986.958393052
74,0.8388800621032715,0.011478185653686523,87.12178302141537,88.21284870505139,2900,405.560239799
75,0.8511879444122314,0.012307882308959961,81.24874571411968,88.11215019238736,2900,142.983411854
76,0.8614509105682373,0.01026296615600586,97.43771779027087,88.22325110767862,2881,675.496400863
77,0.8714208602905273,0.009969949722290039,100.30140851806682,88.36143763454157,2910,307.306536934
78,0.8830199241638184,0.011599063873291016,86.21385405960946,88.33322767191535,2900,0.0
79,0.8945658206939697,0.011545896530151367,86.61085757944949,88.31099755042602,2881,0.0
80,0.9052081108093262,0.010642290115356445,93.9647377735959,88.37746706497559,2858,-1539.04207065
81,0.9148306846618652,0.009622573852539062,103.9222993062438,88.54097414751537,2900,0.0
82,0.9264497756958008,0.011619091033935547,86.06525218533262,88.50992482394928,2900,595.911015397
83,0.9379258155822754,0.01147603988647461,87.13807287987701,88.49313945844706,2891,1008.62820999
84,0.9502239227294922,0.012298107147216797,81.31332635415455,88.40021598142079,error,-10000
85,0.957481861114502,0.007257938385009766,137.78017213060903,88.77452769816507,2891,-211.014109071
86,0.9691309928894043,0.011649131774902344,85.84330740892345,88.7392938942096,2905,117.147549408
87,0.9807701110839844,0.011639118194580078,85.91716170265066,88.70580273275691,2881,-233.403301021
88,0.9902389049530029,0.009468793869018555,105.61007176129925,88.86744356320408,2853,-1160.05583982
89,1.0020086765289307,0.011769771575927734,84.96341611635539,88.82158616460876,2834,-2159.51953241
90,1.0130250453948975,0.011016368865966797,90.7740120330693,88.84281825916376,2863,-558.054151544
91,1.0241799354553223,0.011154890060424805,89.64678222583196,88.85157465962648,2910,1679.38330559
92,1.0359208583831787,0.011740922927856445,85.17217991674282,88.80987312446791,2895,1798.76364966
93,1.047975778579712,0.012054920196533203,82.95368062972193,88.74250903588624,2872,257.50532764
94,1.058763027191162,0.010787248611450195,92.70204442479832,88.78285091743015,2886,-693.98075173
95,1.0697908401489258,0.011027812957763672,90.67981147576425,88.80240551206722,2867,-826.690731446
96,1.080812931060791,0.011022090911865234,90.72688730261734,88.82203130728496,2891,578.612899244
97,1.092404842376709,0.011591911315917969,86.26705059646235,88.79491946315463,2881,-148.624560608
98,1.1033427715301514,0.010937929153442383,91.42498419687425,88.82099246827025,2891,715.309045173
99,1.1147348880767822,0.01139211654663086,87.78000083713532,88.81035397645233,2877,-412.712037616
100,1.1254298686981201,0.01069498062133789,93.50180569798029,88.85493692794776,2895,423.920933893
101,1.1370928287506104,0.011662960052490234,85.74152663641196,88.82300322918626,2881,-296.29579395
102,1.146716833114624,0.009624004364013672,103.9068523014418,88.94959684419688,2895,562.81755155
103,1.1583778858184814,0.011661052703857422,85.75555101206297,88.9174433153329,2942,1426.4894858
104,1.170543909072876,0.012166023254394531,82.1961276162107,88.84758546338747,2881,0.0
105,1.1823408603668213,0.011796951293945312,84.76766370250607,88.80687754242355,2891,-112.283767685
106,1.1944661140441895,0.012125253677368164,82.47250132725092,88.74257607954085,2891,-1413.20321078
107,1.2055459022521973,0.011079788208007812,90.25443277672576,88.75647107265092,2900,542.82623
108,1.2155320644378662,0.009986162185668945,100.13856989375671,88.84998031701087,2844,-1416.03781229
109,1.2260470390319824,0.010514974594116211,95.10246468494206,88.90360363829127,2853,-1203.25797977
110,1.237238883972168,0.011191844940185547,89.3507732947041,88.90764865621091,2900,0.0
111,1.2491629123687744,0.011924028396606445,83.864275288425,88.85950655508326,2942,2913.99135108
112,1.2594268321990967,0.010263919830322266,97.4286643437863,88.92934240922577,2886,988.622063498
113,1.2705318927764893,0.011105060577392578,90.04903602559148,88.93912907062999,2891,-270.327024298
114,1.282066822052002,0.011534929275512695,86.69320601062401,88.91892219591035,2881,-1853.88303661
115,1.2914869785308838,0.009420156478881836,106.15534914327655,89.04464536747938,2910,748.592964974
116,1.3009119033813477,0.009424924850463867,106.10164174951304,89.16822092141001,2863,-921.658664448
117,1.3114359378814697,0.01052403450012207,95.02059309938606,89.21518514202461,2910,987.431837185
118,1.3214988708496094,0.010062932968139648,99.37460610799157,89.29254697292039,2919,299.881123936
119,1.3331069946289062,0.011608123779296875,86.14656588892541,89.26515311933063,2910,1459.84987707
120,1.3426780700683594,0.009571075439453125,104.4814667198087,89.37362028553164,2900,-320.080586696
121,1.3539509773254395,0.011272907257080078,88.70826107186667,89.36808054824876,2914,-154.073203344
122,1.3659729957580566,0.012022018432617188,83.18070759955577,89.3136250708201,2891,-578.105012695
123,1.376518964767456,0.010545969009399414,94.82296023330997,89.3558339174638,2910,295.500461466
124,1.3881490230560303,0.011630058288574219,85.98409184091841,89.32758510827043,2924,292.414370072
125,1.4007418155670166,0.012592792510986328,79.41050399485025,89.23842967406547,2910,546.466636038
126,1.411297082901001,0.010555267333984375,94.7394289844597,89.2795723356842,2895,-431.305683143
127,1.4215419292449951,0.01024484634399414,97.61005352571561,89.33960890443227,2886,-1137.96624304
128,1.4331448078155518,0.01160287857055664,86.1855093905396,89.31407301059966,2877,-1018.42446361
129,1.4454319477081299,0.012287139892578125,81.38590499844769,89.24667827118516,2900,146.477802922
130,1.4571208953857422,0.011688947677612305,85.55090052420096,89.21703093523014,2867,-534.023386875
131,1.469796895980835,0.012676000595092773,78.88923580416424,89.12796071227255,2900,627.522227282
132,1.481153964996338,0.01135706901550293,88.05088695287078,89.11970201580385,2905,139.96969879
133,1.4928457736968994,0.011691808700561523,85.52996594547197,89.0915875861961,2891,671.800748794
134,1.504441738128662,0.011595964431762695,86.2368978349816,89.06958415463751,2867,-952.52274088
135,1.5151128768920898,0.010671138763427734,93.7107109343581,89.1022722194282,2891,-412.262914753
136,1.5245709419250488,0.009458065032958984,105.72987143937485,89.20542577590729,2881,-315.207154398
137,1.5359339714050293,0.011363029479980469,88.00469995803608,89.19654265780464,2900,1047.87741506
138,1.547597885131836,0.01166391372680664,85.73451616859491,89.17045010580648,2891,0.0
139,1.5585918426513672,0.01099395751953125,90.9590562109646,89.18306653237896,2816,-1910.59021402
140,1.5704247951507568,0.011832952499389648,84.50976204388387,89.14785377325907,2910,289.932188159
141,1.5816247463226318,0.011199951171875,89.28610354223433,89.14883276063622,2914,675.936574668
142,1.5929968357086182,0.011372089385986328,87.934588452346,89.14016451064302,2872,1627.6707252
143,1.604444980621338,0.011448144912719727,87.35039673448986,89.12739403791944,2867,-1263.95548423
144,1.6156649589538574,0.011219978332519531,89.1267318317042,89.12738943923124,2891,-675.671455087
145,1.6266040802001953,0.01093912124633789,91.41502114118826,89.14277405608993,2900,833.153697174
146,1.638359785079956,0.011755704879760742,85.06508203703328,89.11351543755991,2900,973.026397374
147,1.6506288051605225,0.012269020080566406,81.50610182666148,89.0569700107132,2877,-400.413613458
148,1.661942958831787,0.011314153671264648,88.38486987672532,89.05239449615777,2877,-650.841251636
149,1.6717360019683838,0.00979304313659668,102.11330493000608,89.12890541602269,2914,419.460361454
150,1.6832499504089355,0.011513948440551758,86.85117925993416,89.11332506711697,2872,-153.274814907
151,1.6945738792419434,0.011323928833007812,88.30857335354557,89.10794734281451,2905,858.081833061
152,1.704803705215454,0.010229825973510742,97.75337357540728,89.15982499040273,2914,0.0
153,1.715458869934082,0.01065516471862793,93.85120046541809,89.18896435323987,2839,-1024.56091314
154,1.7268359661102295,0.011377096176147461,87.89589052578637,89.18044505807431,2900,-154.980675008
155,1.7385280132293701,0.011692047119140625,85.52822185970636,89.15588291964457,2853,-1808.78433369
156,1.750746726989746,0.012218713760375977,81.84167495951141,89.10483600802053,2872,935.165882925
157,1.7614147663116455,0.010668039321899414,93.73793719968711,89.13289646637499,2881,-549.469614022
158,1.7717928886413574,0.010378122329711914,96.35654391325323,89.1752083513312,2910,1713.51911871
159,1.7830867767333984,0.011293888092041016,88.54346632890015,89.17120696239294,2891,587.506826693
160,1.7948038578033447,0.011717081069946289,85.34548784209991,89.14623138587608,2905,718.797635029
161,1.8067667484283447,0.011962890625,83.59183673469387,89.10945485356609,2914,114.37113388
162,1.8191699981689453,0.012403249740600586,80.62403167829613,89.051600544786,2877,-387.991965324
163,1.8311917781829834,0.012021780014038086,83.1823572576007,89.01306894340593,error,-10000
164,1.8388149738311768,0.007623195648193359,131.17858259836117,89.18787498141016,2881,-545.316778262
165,1.849524974822998,0.010710000991821289,93.37067295919503,89.21209621178039,2895,-444.358936328
166,1.8600387573242188,0.010513782501220703,95.1132477663386,89.24545219627645,2905,685.119895459
167,1.870438814163208,0.010400056838989258,96.15332064831159,89.28386148504516,2877,-126.486851628
168,1.8814237117767334,0.01098489761352539,91.03407561748492,89.29408030121414,2877,-564.285665169
169,1.8929178714752197,0.011494159698486328,87.00070524787388,89.28015448884328,2891,-425.80222617
170,1.9039380550384521,0.011020183563232422,90.7425901086063,89.28861921222887,2900,686.582722446
171,1.914909839630127,0.010971784591674805,91.14287576870423,89.29924347405796,2867,-298.631124022
172,1.926332950592041,0.011423110961914062,87.5418266822508,89.28882203210891,2891,0.0
173,1.9375638961791992,0.011230945587158203,89.0396977030527,89.28737800139096,2872,-832.692924552
174,1.949906826019287,0.01234292984008789,81.01804133668148,89.23503301704885,2881,400.034444233
175,1.9614639282226562,0.01155710220336914,86.52688038948715,89.21907636536196,2867,-683.157760434
176,1.97170090675354,0.010236978530883789,97.6850734797494,89.26303142487714,2924,1523.27339521
177,1.9838697910308838,0.01216888427734375,82.176802507837,89.21956511471703,2900,559.432899734
178,1.9947247505187988,0.010854959487915039,92.12378923323595,89.23536941811385,2867,0.0
179,2.0047388076782227,0.010014057159423828,99.859625732108,89.28843962835631,2910,-423.755735327
180,2.0155739784240723,0.01083517074584961,92.29203890331382,89.30458615105637,2863,-1167.03826978
181,2.02553391456604,0.009959936141967773,100.402250149611,89.35915547915094,2877,324.578751461
182,2.036716938018799,0.011183023452758789,89.42125572966634,89.35949645365994,2863,-1469.75446968
183,2.0474469661712646,0.01073002815246582,93.19640039995556,89.37960446526772,2895,1003.9849497
184,2.0581576824188232,0.010710716247558594,93.36443771703321,89.40034166077906,2895,551.744975664
185,2.0692689418792725,0.011111259460449219,89.9987983864046,89.40355516667948,2891,860.162100005
186,2.0806427001953125,0.011373758316040039,87.92168535792894,89.3954545787895,2877,-542.238348667
187,2.0903358459472656,0.009693145751953125,103.16568280204643,89.45930882951407,2881,-435.07765717
188,2.100616931915283,0.010281085968017578,97.26598951811141,89.49751720252341,2881,-318.999718595
189,2.1106958389282227,0.010078907012939453,99.21710744192647,89.54392978571994,2858,-632.213499191
190,2.121511936187744,0.010816097259521484,92.45478993078517,89.55877021433164,2886,160.379315092
191,2.133120059967041,0.011608123779296875,86.14656588892541,89.54020150321551,2867,-430.727774192
192,2.1446638107299805,0.011543750762939453,86.62695691684911,89.52452083137862,2881,677.108428323
193,2.155089855194092,0.010426044464111328,95.91365195517952,89.55543061689093,2877,-268.033286944
194,2.1653120517730713,0.010222196578979492,97.82633236151604,89.59447662111454,2853,-434.890766758
195,2.1759228706359863,0.010610818862915039,94.24343332209864,89.61714711101168,2891,319.907253451
196,2.188124895095825,0.012202024459838867,81.95361378690478,89.57441160661742,2895,544.875987846
197,2.1997129917144775,0.011588096618652344,86.29544893424409,89.55713801847226,2914,1773.20736305
198,2.2107338905334473,0.011020898818969727,90.7367009194159,89.56301834782244,2872,-545.804175114
199,2.2216928005218506,0.01095890998840332,91.24995104971174,89.57133945487745,2867,-834.130090771
200,2.234199047088623,0.012506246566772461,79.96004194071108,89.51753885161634,2863,-1478.85861247
201,2.246526002883911,0.012326955795288086,81.12302961143455,89.47147717941934,2867,-139.695582955
202,2.2583818435668945,0.011855840682983398,84.34661250427334,89.44457314665648,2867,0.0
203,2.2694590091705322,0.011077165603637695,90.27580120961667,89.44863034745657,2886,652.297922118
