Index,Time,Difference,Hz,AveHz,0x6103 Linear-Acceleration-X,0x6103 Linear-Acceleration-Y,0x6103 Linear-Acceleration-Z,0x6103 Range,0x6103 Smoothed Range,0x6103 Velocity,
0,9.5367431640625e-07,9.5367431640625e-07,1048576.0,0.0,0.0,-1.0,-3.0,297,299.5,-1310720.0,
1,0.026430130004882812,0.026429176330566406,37.83697181828023,37.835606552644876,1.0,16.0,-2.0,264,281.75,-655695.8031248873,
2,0.052522897720336914,0.0260927677154541,38.3247960088084,38.07863021284902,0.0,24.0,-10.0,311,296.375,-327567.65149162925,
3,0.07797503471374512,0.025452136993408203,39.289431777731984,38.47385270187218,-6.0,5.0,-11.0,321,308.6875,-163541.95018143297,
4,0.10545706748962402,0.027482032775878906,36.387410209251485,37.93012735152684,1.0,-2.0,-2.0,274,291.34375,-82086.52216362483,
5,0.13327407836914062,0.0278170108795166,35.949225613466695,37.51667286830581,-3.0,8.0,-6.0,283,287.171875,-41118.24891961551,
6,0.1601262092590332,0.026852130889892578,37.24099231083409,37.470443019692745,-6.0,-3.0,-17.0,321,304.0859375,-20244.17622405402,
7,0.1861879825592041,0.0260617733001709,38.37037443624155,37.59641145353803,-5.0,5.0,-10.0,278,291.04296875,-10372.319909375858,
8,0.2130138874053955,0.026825904846191406,37.27740054747769,37.55623681368187,4.0,-8.0,-3.0,283,287.021484375,-5261.115196609077,
9,0.23974895477294922,0.02673506736755371,37.40405760913185,37.539266890749616,3.0,-12.0,-7.0,283,285.0107421875,-2668.1625566137195,
10,0.26590919494628906,0.026160240173339844,38.22594874412162,37.606822893130484,0.0,10.0,-9.0,274,279.50537109375,-1439.3052949303878,
11,0.29178690910339355,0.025877714157104492,38.64328950884014,37.69874403824674,-3.0,18.0,-14.0,311,295.252685546875,-415.3886317657679,
12,0.3193681240081787,0.027581214904785156,36.256560976453095,37.574194473123725,8.0,5.0,-10.0,293,294.1263427734375,-228.11297360564595,
13,0.3474390506744385,0.028070926666259766,35.62404661196895,37.41663458602245,12.0,12.0,-5.0,297,295.56317138671875,-88.46366205635199,
14,0.3744978904724121,0.027058839797973633,36.95649951979417,37.383388147633184,7.0,12.0,1.0,297,296.2815856933594,-30.95679203898724,
15,0.3995199203491211,0.025022029876708984,39.964783230109575,37.545061550103,6.0,-9.0,-10.0,283,289.6407928466797,-148.17731931630163,
16,0.42609095573425293,0.026571035385131836,37.63496549929563,37.55066796108899,15.0,-21.0,-2.0,311,300.32039642333984,126.87459641872877,
17,0.45162010192871094,0.025529146194458008,39.170914388710926,37.64225712584309,13.0,-4.0,-29.0,321,310.6601982116699,265.9470435328232,
18,0.4785802364349365,0.026960134506225586,37.09180307572582,37.611248082633935,2.0,2.0,-17.0,264,287.33009910583496,-299.70419911898705,
19,0.5046272277832031,0.0260469913482666,38.392150042563316,37.65155535397059,-9.0,15.0,0.0,288,287.6650495529175,-143.42236564888566,
20,0.5311992168426514,0.026571989059448242,37.63361477241119,37.6506579186548,-1.0,-13.0,11.0,288,287.83252477645874,-68.55983380110521,
21,0.5560638904571533,0.024864673614501953,40.217700642439354,37.76544451166466,7.0,8.0,-7.0,264,275.91626238822937,-273.90225365383674,
22,0.5829479694366455,0.026884078979492188,37.19673643135864,37.73921714018587,-3.0,-2.0,-2.0,288,281.9581311941147,-24.582226064236565,
23,0.6127090454101562,0.029761075973510742,33.60093569500188,37.53820866901592,-16.0,-30.0,47.0,283,282.47906559705734,-3.5391713448230657,
24,0.6409990787506104,0.0282900333404541,35.34813791011066,37.44155147114889,-23.0,-14.0,57.0,297,289.73953279852867,126.55241229231031,
25,0.6701180934906006,0.029119014739990234,34.341821278268135,37.306857168677034,-48.0,55.0,95.0,302,295.86976639926434,168.5378995014043,
26,0.6978960037231445,0.027777910232543945,35.999828339441585,37.25483433247199,-26.0,-14.0,181.0,307,301.43488319963217,184.44057450179434,
27,0.7255580425262451,0.027662038803100586,36.150625307051186,37.212736152701865,-35.0,-34.0,192.0,307,304.2174415998161,142.51590031091544,
28,0.753119945526123,0.02756190299987793,36.28196500090828,37.17867275502768,-80.0,-270.0,553.0,307,305.60872079990804,96.49712177757176,
29,0.7795970439910889,0.02647709846496582,37.76848891970501,37.19870441213664,-101.0,22.0,564.0,311,308.304360399954,99.15367807171319,
30,0.8052041530609131,0.02560710906982422,39.05165543182749,37.257631975639505,-90.0,188.0,549.0,293,300.652180199977,-99.83831320002092,
31,0.8324398994445801,0.027235746383666992,36.716452925985905,37.23992569395556,-81.0,229.0,494.0,269,284.8260900999885,-340.45810267933024,
32,0.8693420886993408,0.03690218925476074,27.098663255351177,36.80944522987095,-60.0,135.0,424.0,260,272.41304504999425,-338.41751523131416,
33,0.8973400592803955,0.027997970581054688,35.71687444648818,36.77535585167535,-4.0,-16.0,365.0,232,252.20652252499713,-530.0656716283859,
34,0.9271340370178223,0.029793977737426758,33.56382987236426,36.67215164418175,34.0,-90.0,279.0,213,232.60326126249856,-594.0130987931982,
35,0.9532020092010498,0.02606797218322754,38.3612500800278,36.71834476024251,51.0,-92.0,225.0,236,234.30163063124928,-264.4307633551465,
36,0.9799919128417969,0.02678990364074707,37.327495216482,36.73499702217603,-21.0,-39.0,78.0,,234.30163063124928,-264.4307633551465,
37,0.9998581409454346,0.019866228103637695,50.33668166816682,37.005249529712245,-77.0,252.0,-73.0,246,240.15081531562464,14.99889206028638,
38,1.0301060676574707,0.030247926712036133,33.0601171286918,36.88940507496913,-3.0,194.0,-72.0,203,221.57540765781232,-299.5531304100938,
39,1.0583751201629639,0.028269052505493164,35.37437272811612,36.84893877134503,50.0,-165.0,-192.0,274,247.78770382890616,313.8452022029753,
40,1.0858850479125977,0.02750992774963379,36.350513498288336,36.83631161225786,84.0,-219.0,-301.0,208,227.89385191445308,-204.65326517315032,
41,1.1202330589294434,0.0343480110168457,29.113767301098108,36.59952692271184,-36.0,166.0,-465.0,283,255.44692595722654,298.7602604690413,
42,1.147247076034546,0.02701401710510254,37.01781916067252,36.609376373547015,-72.0,262.0,-542.0,288,271.72346297861327,450.6410822443633,
43,1.1778039932250977,0.030556917190551758,32.72581437990091,36.50862133881558,21.0,33.0,-549.0,278,274.86173148930664,276.6717374998012,
44,1.2029809951782227,0.025177001953125,39.71878787878788,36.57580641453223,148.0,-137.0,-561.0,311,292.9308657446533,497.17792407062797,
45,1.2267429828643799,0.023761987686157227,42.08402147193097,36.682500432916584,221.0,-288.0,-527.0,354,323.4654328723267,891.0976513538758,
46,1.251235008239746,0.02449202537536621,40.82961636181335,36.7636772445437,-30.0,67.0,-773.0,354,338.73271643616334,757.2274910761726,
47,1.277251958847046,0.026016950607299805,38.43647993548564,36.79775135551651,-80.0,148.0,-745.0,349,343.8663582180817,477.27330521142414,
48,1.3054280281066895,0.028176069259643555,35.49111094187631,36.76954911839619,3.0,104.0,-689.0,307,325.43317910904085,-88.47034977951068,
49,1.332387924194336,0.026959896087646484,37.09213109535011,36.77607632899342,190.0,-202.0,-570.0,349,337.2165895545204,174.30072760726725,
50,1.3660099506378174,0.033622026443481445,29.74240715921742,36.6029544489438,33.0,-191.0,-620.0,368,352.6082947772602,316.0435456083238,
51,1.3931529521942139,0.027143001556396484,36.8419092458233,36.60761003999961,-83.0,181.0,-654.0,335,343.8041473886301,-4.159026735219271,
52,1.4220619201660156,0.028908967971801758,34.59134206988693,36.566621511058656,36.0,93.0,-520.0,344,343.90207369431505,-0.38581219881541906,
53,1.4489800930023193,0.02691817283630371,37.14962401353374,36.57745213751198,173.0,-87.0,-343.0,307,325.4510368471575,-342.9174468652872,
54,1.4750471115112305,0.026067018508911133,38.36265354467544,36.609000199780304,196.0,-192.0,-275.0,307,316.22551842357876,-348.4164069595298,
55,1.5005972385406494,0.025550127029418945,39.13874865861055,36.652073312815254,25.0,-179.0,-298.0,330,323.11275921178935,-39.42921039921234,
56,1.529130220413208,0.028532981872558594,35.0471606671346,36.622126260029994,-98.0,49.0,-248.0,269,296.0563796058947,-493.83924675899345,
57,1.556161880493164,0.027031660079956055,36.99365843762954,36.62858004331535,-146.0,141.0,-188.0,250,273.02818980294734,-672.8681173830655,
58,1.5831232070922852,0.026961326599121094,37.09016306462453,36.63644101745456,-13.0,194.0,-17.0,269,271.01409490147364,-373.78561285317693,
59,1.6158161163330078,0.032692909240722656,30.587672471631517,36.51405590253473,151.0,-31.0,171.0,283,277.0070474507368,-95.23757156914283,
60,1.6426410675048828,0.026824951171875,37.27872582480091,36.52654325216525,70.0,-200.0,242.0,288,282.5035237253684,54.83203023768513,
61,1.6707661151885986,0.02812504768371582,35.55549527402196,36.51019699613325,-1.0,-31.0,270.0,316,299.2517618626842,325.1619660886058,
62,1.6966309547424316,0.025864839553833008,38.66252477301009,36.54300885333801,-36.0,53.0,336.0,293,296.12588093134207,102.15375857155556,
63,1.724520206451416,0.027889251708984375,35.856107235672276,36.531900156529055,-22.0,103.0,447.0,330,313.06294046567103,354.72539074571023,
64,1.749873161315918,0.025352954864501953,39.443134157121634,36.5740794332039,56.0,100.0,560.0,316,314.53147023283555,206.32440368285333,
65,1.7788808345794678,0.029007673263549805,34.47363705852861,36.53982815288815,32.0,19.0,578.0,354,334.2657351164178,443.31814444816666,
66,1.8068268299102783,0.027945995330810547,35.78330233589844,36.52812704982766,14.0,-32.0,605.0,363,348.6328675582089,478.7107941563365,
67,1.8335540294647217,0.02672719955444336,37.41506841983194,36.54105574383299,-3.0,-26.0,629.0,368,358.31643377910444,420.5110434295585,
68,1.8662419319152832,0.03268790245056152,30.59235757058562,36.43686214370561,-46.0,-66.0,641.0,354,356.15821688955225,177.24305031475038,
69,1.8957691192626953,0.02952718734741211,33.8670930026,36.3968371986329,-88.0,-36.0,596.0,368,362.0791084447761,188.88321763691317,
70,1.9238030910491943,0.028033971786499023,35.67100686323703,36.38626028083973,-102.0,39.0,575.0,382,372.03955422238806,272.09117366550447,
71,1.9498610496520996,0.026057958602905273,38.375991582414564,36.412851065807,-44.0,185.0,530.0,391,381.519777111194,317.9520637228676,
72,1.9765400886535645,0.026679039001464844,37.48260947274352,36.42729050289438,18.0,148.0,536.0,363,372.259888555597,-14.56636138385096,
73,2.006844997406006,0.030304908752441406,32.99795449538975,36.375504881721234,149.0,62.0,543.0,335,353.6299442777985,-314.6582074571468,
74,2.03389310836792,0.027048110961914062,36.9711585924829,36.38342629489544,160.0,-15.0,513.0,288,320.81497213889924,-763.9328733061491,
75,2.0620739459991455,0.028180837631225586,35.48510562695116,36.37114961154312,5.0,-166.0,266.0,307,313.90748606944965,-504.52287304863074,
76,2.089401960372925,0.027328014373779297,36.592486608155504,36.3740445550435,-44.0,-63.0,159.0,311,312.4537430347248,-278.8594727892491,
77,2.1209208965301514,0.03151893615722656,31.72695915279879,36.30498437069143,-48.0,1.0,95.0,316,314.2268715173624,-111.30174892397156,
78,2.147467851638794,0.026546955108642578,37.669103515168935,36.32184758457547,-4.0,128.0,-11.0,339,326.6134357586812,177.6445108397783,
79,2.1766650676727295,0.029197216033935547,34.24984076693178,36.29405422693997,-10.0,103.0,-82.0,405,365.80671787934057,760.0040913028982,
80,2.205333948135376,0.028668880462646484,34.881027227516924,36.275685171237,140.0,-100.0,-131.0,443,404.4033589396703,1053.1472895094785,
81,2.2301831245422363,0.02484917640686035,40.242782441832574,36.319887415804,55.0,-233.0,-245.0,96,250.20167946983514,-2576.178674780149,
82,2.257411003112793,0.02722787857055664,36.72706257333497,36.32479857984586,-52.0,-114.0,-434.0,686,468.1008397349176,2713.3087094763396,
83,2.284118890762329,0.026707887649536133,37.44212245918176,36.33786329410313,61.0,94.0,-391.0,457,462.5504198674588,1252.7446045495358,
84,2.3112800121307373,0.027161121368408203,36.81733115640526,36.34349778439937,184.0,70.0,-418.0,457,459.7752099337294,575.2843906954375,
85,2.3378450870513916,0.026565074920654297,37.643409739548744,36.35826876245521,13.0,-257.0,-623.0,443,451.3876049668647,129.7731700971383,
86,2.370828866958618,0.03298377990722656,30.31793211125889,36.274233538553034,-61.0,-254.0,-685.0,438,444.69380248343236,-36.58453958087014,
87,2.3990859985351562,0.028257131576538086,35.38929623098406,36.263810489961934,47.0,48.0,-660.0,443,443.8469012417162,-33.27788925117618,
88,2.4282588958740234,0.029172897338867188,34.27839163125204,36.23995783543724,38.0,129.0,-657.0,410,426.9234506208581,-306.69327869255267,
89,2.4544520378112793,0.02619314193725586,38.177932315086196,36.26063929094512,137.0,14.0,-608.0,447,436.9617253104291,38.27364648306562,
90,2.4813990592956543,0.026947021484375,37.10985277463194,36.2698614166262,121.0,-139.0,-626.0,504,470.48086265521454,641.0819492403607,
91,2.5085160732269287,0.027117013931274414,36.87721673685784,36.27642691678613,47.0,-211.0,-612.0,583,526.7404313276072,1357.8891283471614,
92,2.5352959632873535,0.026779890060424805,37.34145277458757,36.2876765995831,20.0,-98.0,-604.0,677,601.8702156638036,2081.672211051094,
93,2.5615999698638916,0.026304006576538086,38.01702212513709,36.30543453080282,121.0,184.0,-456.0,457,529.4351078319019,-336.0474430155027,
94,2.5891621112823486,0.02756214141845703,36.28165115393931,36.30518135206455,-58.0,-157.0,-523.0,480,504.71755391595093,-616.4205557863604,
95,2.6224160194396973,0.03325390815734863,30.07165339088165,36.22613624069365,42.0,-235.0,-351.0,396,450.35877695797546,-1125.5394276094212,
96,2.649435043334961,0.027019023895263672,37.01095953267564,36.23413989390001,110.0,-90.0,-267.0,325,387.67938847898773,-1722.6818690690461,
97,2.678178071975708,0.02874302864074707,34.79104489992286,36.21865215573307,11.0,107.0,-207.0,321,354.33969423949384,-1441.3023341524888,
98,2.7055771350860596,0.027399063110351562,36.497598329272535,36.22147701099743,-12.0,76.0,-113.0,260,307.1698471197469,-1581.4442337911025,
99,2.7326319217681885,0.027054786682128906,36.96203602523882,36.22880901425635,-7.0,-13.0,-4.0,260,283.58492355987346,-1226.5955140318245,
100,2.7590749263763428,0.026443004608154297,37.817185105040124,36.24403202827694,67.0,-42.0,99.0,278,280.79246177993673,-666.0992790312208,
101,2.783785104751587,0.02471017837524414,40.46915343200633,36.281536181656094,20.0,-172.0,191.0,302,291.39623088996836,-118.48685997989068,
102,2.811199903488159,0.027414798736572266,36.47664933122293,36.283438923513614,-12.0,-247.0,256.0,311,301.1981154449842,119.52652285927572,
103,2.838024139404297,0.026824235916137695,37.27971984463465,36.29285550108808,-57.0,82.0,361.0,325,313.0990577224921,281.59515842596943,
104,2.870767116546631,0.032742977142333984,30.540900286891812,36.22725068869608,-125.0,79.0,370.0,410,361.549528861246,880.6580831637913,
105,2.8976340293884277,0.026866912841796875,37.22050262672157,36.23646013784605,-124.0,33.0,428.0,438,399.774764430623,1151.710282040419,
106,2.925049066543579,0.027415037155151367,36.47633210710776,36.238708339089925,-12.0,-8.0,564.0,471,435.3873822153115,1225.3639777791045,
107,2.9521398544311523,0.027090787887573242,36.912916824346325,36.24489532208081,38.0,-11.0,641.0,490,462.69369110765575,1116.659743351058,
108,2.9789202213287354,0.026780366897583008,37.34078789227687,36.25474734997335,52.0,50.0,672.0,494,478.34684555382785,850.5804316853105,
109,3.0080959796905518,0.029175758361816406,34.275030235674826,36.23554591872199,25.0,54.0,670.0,475,476.6734227769139,396.6119077047594,
110,3.0340230464935303,0.025927066802978516,38.569731300461626,36.2554925636207,-29.0,55.0,627.0,443,459.83671138845693,-126.38776326572443,
111,3.061837911605835,0.027814865112304688,35.95199890283207,36.252735515246165,-60.0,100.0,593.0,513,486.41835569422847,414.637741825423,
112,3.08876895904541,0.026931047439575195,37.131864337756845,36.26040065962519,-113.0,106.0,541.0,429,457.70917784711423,-325.6937776210784,
113,3.1212399005889893,0.0324709415435791,30.79676635363051,36.203561276618466,-148.0,45.0,482.0,457,457.3545889235571,-168.30698492572614,
114,3.1494200229644775,0.02818012237548828,35.48600629462926,36.19714079695677,-74.0,-16.0,454.0,396,426.67729446177856,-628.4608246492977,
115,3.176079034805298,0.026659011840820312,37.51076768977606,36.20816696932411,17.0,-32.0,439.0,429,427.83864723088925,-292.4487953606542,
116,3.2016570568084717,0.025578022003173828,39.09606457746873,36.231238368681815,42.0,-63.0,372.0,349,388.4193236154446,-916.7946085151077,
117,3.229311227798462,0.027654170989990234,36.16091042331235,36.23063611609932,4.0,2.0,281.0,321,354.70966180772234,-1067.8833347721534,
118,3.2561559677124023,0.02684473991394043,37.25124561481416,36.23905033114872,-98.0,70.0,105.0,269,311.85483090386117,-1332.139583276607,
119,3.283092975616455,0.026937007904052734,37.12364801472801,36.24630824768396,-12.0,90.0,57.0,269,290.4274154519306,-1063.801706189711,
120,3.311218023300171,0.02812504768371582,35.55549527402196,36.24044057370779,46.0,46.0,-4.0,250,270.21370772596526,-891.255047855366,
121,3.3375320434570312,0.02631402015686035,38.002555065281015,36.25433356878504,80.0,-16.0,-75.0,307,288.60685386298263,-96.13424947980138,
122,3.368551015853882,0.031018972396850586,32.23833424286911,36.21735263198163,73.0,-62.0,-184.0,330,309.30342693149134,285.54439539237285,
123,3.3962090015411377,0.02765798568725586,36.155922969501574,36.21685236220293,-16.0,-61.0,-347.0,354,331.6517134657457,546.7836609126109,
124,3.4227890968322754,0.026580095291137695,37.622137507287974,36.227765279128526,-95.0,14.0,-457.0,475,403.3258567328728,1621.6590673127635,
125,3.4510209560394287,0.02823185920715332,35.420975737461255,36.22116515440014,-44.0,67.0,-504.0,635,519.1629283664364,2862.3605855718906,
126,3.476318120956421,0.025297164916992188,39.53012139033401,36.24524442697847,123.0,-34.0,-460.0,677,598.0814641832183,2991.00994317835,
127,3.503249168395996,0.026931047439575195,37.131864337756845,36.25206027184999,104.0,-150.0,-553.0,668,633.0407320916091,2144.5563682500083,
128,3.529547929763794,0.02629876136779785,38.02460450568877,36.26526754902747,13.0,-37.0,-650.0,597,615.0203660458046,729.6695381552746,
129,3.5561399459838867,0.026592016220092773,37.60527188774824,36.275287800663094,34.0,83.0,-648.0,532,573.5101830229023,-415.66609026557893,
130,3.5835628509521484,0.02742290496826172,36.46586680577291,36.27674619002682,84.0,59.0,-616.0,522,547.7550915114512,-677.4239134463246,
131,3.6162631511688232,0.032700300216674805,30.58075899529729,36.22523984673491,70.0,-125.0,-645.0,522,534.8775457557256,-535.614518326541,
132,3.642932176589966,0.026669025421142578,37.49668329489174,36.234547776720085,13.0,-134.0,-667.0,541,537.9387728778628,-210.41432721701455,
133,3.6726009845733643,0.029668807983398438,33.70543233686917,36.2141165235924,40.0,-57.0,-610.0,499,518.4693864389315,-433.31920723738654,
134,3.6996660232543945,0.027065038681030273,36.94803513068297,36.219485531325745,66.0,63.0,-531.0,513,515.7346932194657,-267.1803741909233,
135,3.726905107498169,0.027239084243774414,36.71195371513099,36.22308486695655,151.0,-8.0,-421.0,593,554.3673466097329,575.5499044826311,
136,3.7548630237579346,0.027957916259765625,35.76804475371811,36.21969673447335,141.0,-130.0,-388.0,443,498.68367330486643,-708.0731071686248,
137,3.7822959423065186,0.027432918548583984,36.452556013279796,36.22138565827155,16.0,-182.0,-386.0,616,557.3418366524332,715.0834389473351,
138,3.8091039657592773,0.02680802345275879,37.30226518796525,36.22899276063528,0.0,45.0,-283.0,438,497.6709183262166,-755.3884902333061,
139,3.8349621295928955,0.025858163833618164,38.672506154512845,36.24546874332647,28.0,95.0,-205.0,363,430.33545916310834,-1679.7097245677799,
140,3.8662590980529785,0.03129696846008301,31.951976475786363,36.2107133664433,33.0,-29.0,-71.0,311,370.66772958155417,-1793.1058082605905,
141,3.894447088241577,0.028187990188598633,35.47610146410779,36.20539624885863,-30.0,-111.0,-18.0,293,331.83386479077706,-1585.3899679108213,
142,3.9235150814056396,0.0290679931640625,34.40209973753281,36.19203623632486,28.0,-74.0,106.0,269,300.4169323953885,-1333.0992048121516,
