Index,Time,Difference,Hz,AveHz,0x6103 Linear-Acceleration-X,0x6103 Linear-Acceleration-Y,0x6103 Linear-Acceleration-Z,0x6103 Range,0x6103 Smoothed Range,0x6103 Velocity,0x6104 Linear-Acceleration-X,0x6104 Linear-Acceleration-Y,0x6104 Linear-Acceleration-Z,0x6104 Range,0x6104 Smoothed Range,0x6104 Velocity,
0,0.0,0.0,0,0,-129.0,34.0,-8.0,1256,1301.6000000000001,,0,0,0,,0,,
1,0.08703184127807617,0.08703184127807617,11.490047611481545,11.490047611481545,-18.0,-35.0,5.0,1350,1311.2800000000002,22.244732175828418,0,0,0,,0,0,
2,0.16691112518310547,0.0798792839050293,12.518890394522412,11.982424765311194,-68.0,40.0,-5.0,1355,1320.0240000000001,39.68882126260331,0,0,0,,0,0,
3,0.2513859272003174,0.08447480201721191,11.83784958497148,11.933842253665393,7.0,1.0,56.0,1377,1331.4192000000003,58.72998972821643,0,0,0,,0,0,
4,0.34874987602233887,0.09736394882202148,10.270742015897193,11.469538127502542,-99.0,11.0,-69.0,1345,1334.1353600000002,52.5633875093529,0,0,0,,0,0,
5,0.43068599700927734,0.08193612098693848,12.204629508387528,11.609386036974627,-22.0,24.0,25.0,1256,1318.5082880000002,3.906185195303024,0,0,0,,0,0,
6,0.5161418914794922,0.08545589447021484,11.701942928565849,11.624710373345849,-106.0,12.0,-26.0,1252,1305.2066304000002,-28.006099461862412,0,0,0,,0,0,
7,0.5991230010986328,0.08298110961914062,12.050935503148992,11.683744384982475,-33.0,20.0,-12.0,1238,1291.7653043200003,-54.80099030286472,0,0,0,,0,0,
8,0.6832108497619629,0.08408784866333008,11.892324704414643,11.709415918654212,-47.0,43.0,34.0,1256,1284.6122434560002,-60.85409672731765,0,0,0,,0,0,
9,0.7682650089263916,0.08505415916442871,11.757214577440903,11.714707679550587,-114.0,-36.0,-45.0,1317,1291.0897947648002,-33.45168524706517,0,0,0,,0,0,
10,0.8529601097106934,0.08469510078430176,11.807058386373042,11.72387768918267,42.0,8.0,66.0,1317,1296.2718358118402,-14.524415957055542,0,0,0,,0,0,
11,0.9338231086730957,0.08086299896240234,12.36659551131606,11.779532866380135,-129.0,18.0,-25.0,1294,1295.8174686494722,-12.743327747770447,0,0,0,,0,0,
12,1.0175318717956543,0.0837087631225586,11.946180575334662,11.793242386426101,-49.0,-15.0,6.0,1350,1306.6539749195779,15.696309943469446,0,0,0,,0,0,
13,1.1001338958740234,0.08260202407836914,12.106240871909439,11.816743442553317,-46.0,23.0,27.0,1219,1289.1231799356624,-29.889357395492965,0,0,0,,0,0,
14,1.1819977760314941,0.0818638801574707,12.215399490916292,11.844353926793659,-63.0,-57.0,-13.0,1205,1272.2985439485299,-65.01541589080848,0,0,0,,0,0,
15,1.2670059204101562,0.08500814437866211,11.763578740709578,11.83893441882591,-90.0,25.0,20.0,,1272.2985439485299,-65.01541589080848,0,0,0,,0,0,
16,1.3507840633392334,0.08377814292907715,11.936287497403178,11.844972438042298,176.0,80.0,-102.0,1369,1291.638835158824,-5.8420774787329535,0,0,0,,0,0,
17,1.4339699745178223,0.08318591117858887,12.021266411966513,11.855199412886112,-108.0,-20.0,-167.0,,1291.638835158824,-5.8420774787329535,0,0,0,,0,0,
18,1.5172119140625,0.08324193954467773,12.013175155094489,11.86386676321506,29.0,12.0,-20.0,,1291.638835158824,-5.8420774787329535,0,0,0,,0,0,
19,1.5957038402557373,0.0784919261932373,12.740163842305577,11.906971407021834,-68.0,1.0,-19.0,1284,1290.111068127059,-8.56646244249771,0,0,0,,0,0,
20,1.677196741104126,0.08149290084838867,12.271007530587527,11.924659468890736,-165.0,-4.0,53.0,1350,1302.0888545016473,22.542731406470114,0,0,0,,0,0,
21,1.7610089778900146,0.08381223678588867,11.931431952528063,11.924981793767762,9.0,5.0,69.0,,1302.0888545016473,22.542731406470114,0,0,0,,0,0,
22,1.8400189876556396,0.079010009765625,12.656624179219776,11.956398356535498,-10.0,13.0,62.0,1374,1316.4710836013178,54.44027883996952,0,0,0,,0,0,
23,1.9212398529052734,0.08122086524963379,12.31210720209003,11.971436031383435,-101.0,86.0,78.0,1378,1328.7768668810545,73.85424766113671,0,0,0,,0,0,
24,2.0066349506378174,0.08539509773254395,11.710274085427992,11.96032192720031,-89.0,36.0,-14.0,1405,1344.0214935048436,94.7871493478261,0,0,0,,0,0,
25,2.1031408309936523,0.09650588035583496,10.362062874436415,11.88698333063529,-91.0,17.0,33.0,1433,1361.8171948038748,112.70975462931105,0,0,0,,0,0,
26,2.1876919269561768,0.08455109596252441,11.827167804462642,11.884671547960979,-63.0,-7.0,44.0,,1361.8171948038748,112.70975462931105,0,0,0,,0,0,
27,2.265519857406616,0.07782793045043945,12.848857655758898,11.917794457519086,-36.0,9.0,7.0,,1361.8171948038748,112.70975462931105,0,0,0,,0,0,
28,2.3462181091308594,0.08069825172424316,12.391842185344178,11.934099345253289,-106.0,34.0,13.0,1457,1380.8537558431,137.34741573339903,0,0,0,,0,0,
29,2.4304769039154053,0.0842587947845459,11.868197290942172,11.93181467936688,-19.0,0.0,52.0,1429,1390.48300467448,132.73429756559761,0,0,0,,0,0,
30,2.5145528316497803,0.084075927734375,11.894010889292195,11.93055068177558,-71.0,18.0,-30.0,1475,1407.386403739584,146.39728056175767,0,0,0,,0,0,
31,2.599411964416504,0.08485913276672363,11.784235442860153,11.925774145984068,-79.0,23.0,-39.0,1452,1416.3091229916674,138.14730934082456,0,0,0,,0,0,
32,2.681562900543213,0.08215093612670898,12.172715822222738,11.93333931996063,-62.0,-2.0,55.0,1452,1423.447298393334,127.8960436033932,0,0,0,,0,0,
33,2.765878915786743,0.08431601524353027,11.860143023975885,11.931107978605521,-127.0,7.0,19.0,,1423.447298393334,127.8960436033932,0,0,0,,0,0,
34,2.848278760910034,0.08239984512329102,12.13594514047626,11.937033855891581,-52.0,-38.0,19.0,1466,1431.9578387146673,122.97352497381708,0,0,0,,0,0,
35,2.935605764389038,0.0873270034790039,11.451211654599264,11.922581848208164,-2.0,-2.0,45.0,1461,1437.766270971734,111.68153741046811,0,0,0,,0,0,
36,3.022199869155884,0.0865941047668457,11.54813024157356,11.911852808747222,-66.0,-22.0,-11.0,,1437.766270971734,111.68153741046811,0,0,0,,0,0,
37,3.099000930786133,0.07680106163024902,13.02065334479879,11.939331683457771,-55.0,-24.0,4.0,1475,1445.2130167773873,108.73752906482379,0,0,0,,0,0,
38,3.1866650581359863,0.08766412734985352,11.40717452201583,11.924692211684082,-66.0,20.0,-7.0,1452,1446.57041342191,90.0868353357927,0,0,0,,0,0,
39,3.2736339569091797,0.08696889877319336,11.49836337019634,11.913366159245879,-81.0,-16.0,-2.0,,1446.57041342191,90.0868353357927,0,0,0,,0,0,
40,3.3532769680023193,0.07964301109313965,12.556029540753247,11.928629928779666,-65.0,33.0,4.0,1457,1448.6563307375282,77.30763615552831,0,0,0,,0,0,
41,3.4331700801849365,0.07989311218261719,12.516723565784133,11.942315423473406,-36.0,4.0,-12.0,1471,1453.1250645900227,73.03289018856982,0,0,0,,0,0,
42,3.517753839492798,0.08458375930786133,11.82260055810807,11.939436901035608,-89.0,18.0,10.0,,1453.1250645900227,73.03289018856982,0,0,0,,0,0,
43,3.59309983253479,0.07534599304199219,13.27210591600638,11.967382484239298,-52.0,11.0,11.0,1475,1457.5000516720181,70.03937053753643,0,0,0,,0,0,
44,3.674612045288086,0.0815122127532959,12.268100278747072,11.974053167441365,-21.0,35.0,-22.0,1461,1458.2000413376145,57.74900511235374,0,0,0,,0,0,
45,3.758791923522949,0.08417987823486328,11.879323431782392,11.9719316513332,-65.0,-1.0,-26.0,1494,1465.3600330700915,63.21037560167947,0,0,0,,0,0,
46,3.8456428050994873,0.08685088157653809,11.51398790487511,11.9615893444399,-5.0,-26.0,50.0,1471,1466.4880264560734,53.16584092193848,0,0,0,,0,0,
47,3.924463987350464,0.07882118225097656,12.686944948578342,11.976157801802447,-58.0,14.0,50.0,1504,1473.9904211648586,61.56916646812353,0,0,0,,0,0,
48,4.00715184211731,0.0826878547668457,12.093674492096719,11.978582766815652,-15.0,62.0,-8.0,1452,1469.592336931887,38.61753335402268,0,0,0,,0,0,
49,4.0953497886657715,0.08819794654846191,11.338132452443578,11.964789951669491,-29.0,-6.0,108.0,1443,1464.2738695455096,18.833729149068233,0,0,0,,0,0,
50,4.1787238121032715,0.0833740234375,11.994143484626647,11.96537561424371,-151.0,-92.0,624.0,1452,1461.8190956364078,9.178401221637783,0,0,0,,0,0,
51,4.262218713760376,0.08349490165710449,11.976779182359946,11.965599004891246,-70.0,-7.0,542.0,1475,1464.4552765091264,13.657312216772471,0,0,0,,0,0,
52,4.349325895309448,0.08710718154907227,11.480109701823437,11.955875749867273,-9.0,103.0,269.0,1368,1445.1642212073011,-33.3668364523614,0,0,0,,0,0,
53,4.434272050857544,0.0849461555480957,11.772163125543798,11.95235641659612,-2.0,-62.0,-32.0,1181,1392.331376965841,-151.08484132127242,0,0,0,,0,0,
54,4.519562005996704,0.08528995513916016,11.724710118189035,11.948060437792648,-132.0,-199.0,-416.0,,1392.331376965841,-151.08484132127242,0,0,0,,0,0,
55,4.60163688659668,0.08207488059997559,12.183995793717882,11.952268585163702,16.0,61.0,-584.0,1116,1337.0651015726728,-255.54068644198088,0,0,0,,0,0,
56,4.686207056045532,0.08457016944885254,11.824500370722246,11.94996280152754,-5.0,-303.0,-708.0,1013,1272.2520812581383,-357.70886570095297,0,0,0,,0,0,
57,4.772538900375366,0.08633184432983398,11.583211360334934,11.943328528032925,-129.0,-87.0,-743.0,1069,1231.6016650065108,-380.33956522640165,0,0,0,,0,0,
58,4.861568927764893,0.08903002738952637,11.23216547631481,11.930304982154292,-31.0,90.0,-492.0,1158,1216.8813320052086,-337.33989540853804,0,0,0,,0,0,
59,4.9448840618133545,0.08331513404846191,12.002621269484246,11.931523421474095,-4.0,-178.0,-169.0,1303,1234.105065604167,-228.5259260798726,0,0,0,,0,0,
60,5.026700735092163,0.0818166732788086,12.22244757608607,11.936258624097286,-94.0,193.0,71.0,,1234.105065604167,-228.5259260798726,0,0,0,,0,0,
61,5.109288930892944,0.08258819580078125,12.108267898383373,11.939039037539633,22.0,-20.0,462.0,1382,1263.6840524833337,-111.19068140475473,0,0,0,,0,0,
62,5.1912007331848145,0.08191180229187012,12.208252925955357,11.943286955494562,-84.0,8.0,599.0,1532,1317.347241986667,42.074212930229436,0,0,0,,0,0,
63,5.274711847305298,0.0835111141204834,11.974454065566375,11.943780404266999,-99.0,-51.0,686.0,,1317.347241986667,42.074212930229436,0,0,0,,0,0,
64,5.354407072067261,0.07969522476196289,12.547803246516247,11.952770706185868,62.0,21.0,717.0,1374,1328.6777935893338,62.094076781135705,0,0,0,,0,0,
65,5.433728933334351,0.07932186126708984,12.606865043582808,11.962319209786829,-90.0,163.0,459.0,1280,1318.942234871467,25.128286448904127,0,0,0,,0,0,
66,5.521808862686157,0.08807992935180664,11.353324274430616,11.95260495994304,73.0,-71.0,203.0,1322,1319.5537878971738,21.491261121495064,0,0,0,,0,0,
67,5.613931894302368,0.09212303161621094,10.855048758773474,11.934594373686458,-124.0,61.0,-217.0,1102,1276.0430303177393,-77.26927011399083,0,0,0,,0,0,
68,5.695659160614014,0.08172726631164551,12.235818535600618,11.938916652566924,217.0,72.0,-324.0,1004,1221.6344242541916,-194.96218220490255,0,0,0,,0,0,
69,5.779565811157227,0.08390665054321289,11.918006421731594,11.93861308176441,-86.0,-250.0,-688.0,,1221.6344242541916,-194.96218220490255,0,0,0,,0,0,
70,5.853446006774902,0.07388019561767578,13.535427074055429,11.958767522409964,-15.0,-30.0,-729.0,1345,1246.3075394033533,-89.17751560567189,0,0,0,,0,0,
71,5.935022830963135,0.08157682418823242,12.258383553796785,11.962885741499015,61.0,-199.0,-623.0,1494,1295.8460315226828,50.1103549305585,0,0,0,,0,0,
72,6.02514386177063,0.09012103080749512,11.096189103030463,11.94992213494486,-139.0,-193.0,-548.0,1410,1318.6768252181462,90.75524478787432,0,0,0,,0,0,
73,6.112359046936035,0.08721518516540527,11.46589321691493,11.943015689923023,-76.0,9.0,-186.0,1378,1330.541460174517,99.81192332378413,0,0,0,,0,0,
74,6.194494962692261,0.08213591575622559,12.174941872784853,11.946090915511538,-49.0,-34.0,92.0,,1330.541460174517,99.81192332378413,0,0,0,,0,0,
75,6.273077726364136,0.078582763671875,12.725436893203884,11.955853772510142,52.0,-28.0,465.0,,1330.541460174517,99.81192332378413,0,0,0,,0,0,
76,6.364232063293457,0.09115433692932129,10.970405069978996,11.94173927728688,-78.0,-27.0,641.0,1705,1405.4331681396136,244.16801321096386,0,0,0,,0,0,
77,6.448546886444092,0.08431482315063477,11.860310709700771,11.94067459784881,25.0,36.0,718.0,1691,1462.5465345116909,330.81086473873347,0,0,0,,0,0,
78,6.532902956008911,0.08435606956481934,11.854511538515892,11.93956201787082,-47.0,-69.0,589.0,1635,1497.0372276093528,346.4227556505156,0,0,0,,0,0,
79,6.616536855697632,0.0836338996887207,11.956873991550404,11.939780843504488,47.0,-49.0,424.0,1494,1496.4297820874822,275.6855746080647,0,0,0,,0,0,
80,6.702996015548706,0.08645915985107422,11.566154491004754,11.934961592462056,-114.0,-72.0,10.0,1410,1479.1438256699857,180.56205119654402,0,0,0,,0,0,
81,6.783168077468872,0.08017206192016602,12.47317302373716,11.941322856063595,87.0,15.0,-134.0,1372,1457.7150605359886,90.99270191696081,0,0,0,,0,0,
82,6.8635759353637695,0.08040785789489746,12.436595454478066,11.947125051462551,-71.0,-132.0,-551.0,1242,1414.572048428791,-34.51627611940448,0,0,0,,0,0,
83,6.943857908248901,0.08028197288513184,12.456096481719612,11.953009565676856,168.0,-27.0,-551.0,1238,1379.257638743033,-115.58895974367849,0,0,0,,0,0,
84,7.02342414855957,0.07956624031066895,12.568144430294405,11.95997824184198,86.0,-21.0,-643.0,1233,1350.0061109944268,-165.9986529051926,0,0,0,,0,0,
85,7.1177589893341064,0.09433484077453613,10.600537317808572,11.941960963748798,-109.0,-71.0,-644.0,1294,1338.8048887955415,-156.5467171090239,0,0,0,,0,0,
86,7.197091817855835,0.07933282852172852,12.605122225361086,11.949270924491444,130.0,-62.0,-272.0,1355,1342.0439110364332,-117.07171943979856,0,0,0,,0,0,
87,7.277624845504761,0.08053302764892578,12.417265675883712,11.95444967924365,29.0,61.0,-19.0,1499,1373.4351288291466,-15.6987573075088,0,0,0,,0,0,
88,7.370061874389648,0.0924370288848877,10.818175487285567,11.940198264249677,-31.0,-60.0,250.0,1640,1426.7481030633173,102.79081635687152,0,0,0,,0,0,
89,7.451240062713623,0.08117818832397461,12.318579912243088,11.944320576297152,-50.0,78.0,515.0,1733,1487.9984824506541,233.1361917131203,0,0,0,,0,0,
90,7.5363688468933105,0.0851287841796875,11.746908048037282,11.942090657770866,62.0,-21.0,692.0,1738,1537.9987859605235,303.9787469113745,0,0,0,,0,0,
91,7.6226770877838135,0.08630824089050293,11.586379118405096,11.938063091487583,-69.0,-14.0,676.0,1719,1574.1990287684189,327.06894499921833,0,0,0,,0,0,
92,7.703933954238892,0.08125686645507812,12.306652269846486,11.94195076781251,0.0,47.0,568.0,1851,1629.5592230147352,397.9148880354888,0,0,0,,0,0,
93,7.787008762359619,0.08307480812072754,12.037343481392833,11.942968454015087,-22.0,-7.0,398.0,,1629.5592230147352,397.9148880354888,0,0,0,,0,0,
94,7.860177993774414,0.07316923141479492,13.666946893715746,11.9590167136739,-33.0,10.0,28.0,1083,1520.2473784117883,19.540075419874483,0,0,0,,0,0,
95,7.946419954299927,0.0862419605255127,11.595283710000691,11.955069143884609,27.0,-159.0,-212.0,1107,1437.5979027294309,-176.0367634680479,0,0,0,,0,0,
96,8.02737283706665,0.08095288276672363,12.352864602507502,11.959080753882134,43.0,-26.0,-462.0,975,1345.0783221835447,-369.405781087262,0,0,0,,0,0,
97,8.118275880813599,0.09090304374694824,11.000731755294735,11.948349800386291,-23.0,-54.0,-688.0,933,1262.662657746836,-476.8511482503331,0,0,0,,0,0,
98,8.197288036346436,0.07901215553283691,12.656280457813947,11.955173414118432,16.0,-181.0,-660.0,985,1207.1301261974688,-522.0479773645048,0,0,0,,0,0,
99,8.27777910232544,0.0804910659790039,12.423739055224464,11.959729629918293,53.0,-24.0,-500.0,1027,1171.104100957975,-507.153969246084,0,0,0,,0,0,
100,8.364832878112793,0.08705377578735352,11.48715252101991,11.95481146570871,-23.0,-67.0,-332.0,1126,1162.08328076638,-426.4478828779768,0,0,0,,0,0,
101,8.447471857070923,0.08263897895812988,12.100827147279531,11.956239891519537,-34.0,-43.0,0.0,1195,1168.666624613104,-325.225525114319,0,0,0,,0,0,
102,8.530741930007935,0.08327007293701172,12.009116417568574,11.956756028593768,-40.0,52.0,300.0,1270,1188.9332996904832,-211.50344801119874,0,0,0,,0,0,
103,8.615283966064453,0.08454203605651855,11.828435257124324,11.955496813072712,-65.0,-78.0,533.0,1400,1231.1466397523866,-69.33920642711959,0,0,0,,0,0,
104,8.699389934539795,0.0841059684753418,11.889762618846488,11.954861292868543,-68.0,2.0,674.0,1429,1270.7173118019093,38.625814325714096,0,0,0,,0,0,
105,8.782190799713135,0.08280086517333984,12.077168492219803,11.956014438154744,-59.0,111.0,680.0,1452,1306.9738494415276,118.47591426420712,0,0,0,,0,0,
106,8.871036052703857,0.08884525299072266,11.255525380792392,11.948998895984829,-94.0,-120.0,498.0,1386,1322.7790795532221,130.3599651456541,0,0,0,,0,0,
107,8.951380014419556,0.08034396171569824,12.446486066228074,11.95346413934347,-4.0,28.0,284.0,1289,1316.0232636425776,87.4707383969555,0,0,0,,0,0,
108,9.03447413444519,0.08309412002563477,12.034545882325936,11.95420988458365,-66.0,-20.0,-36.0,1205,1293.8186109140622,16.532008305077973,0,0,0,,0,0,
109,9.118467807769775,0.08399367332458496,11.905658609971757,11.953762660336636,21.0,128.0,-299.0,1162,1267.4548887312499,-49.54988855527829,0,0,0,,0,0,
110,9.200035810470581,0.08156800270080566,12.25970928414216,11.956475199238763,-19.0,-128.0,-569.0,1065,1226.963910985,-138.9214340041613,0,0,0,,0,0,
111,9.282483100891113,0.08244729042053223,12.128961363064581,11.95800722646552,-84.0,-37.0,-695.0,,1226.963910985,-138.9214340041613,0,0,0,,0,0,
112,9.36532473564148,0.08284163475036621,12.071224849840126,11.959008700868987,20.0,-54.0,-640.0,1065,1194.571128788,-189.34125868570632,0,0,0,,0,0,
113,9.444103002548218,0.07877826690673828,12.693856304097816,11.96513845407131,-59.0,-164.0,-517.0,1130,1181.6569030304,-184.25927215769565,0,0,0,,0,0,
114,9.52803897857666,0.08393597602844238,11.913842518029956,11.96468656943192,-66.0,25.0,-308.0,1200,1185.3255224243198,-138.66594698260602,0,0,0,,0,0,
115,9.615616083145142,0.08757710456848145,11.418509494317021,11.959712098071309,-22.0,-66.0,50.0,1275,1203.260417939456,-69.9748026422518,0,0,0,,0,0,
116,9.699284076690674,0.08366799354553223,11.952001686950922,11.959645586499656,-81.0,54.0,360.0,1410,1244.6083343515647,42.85823122808461,0,0,0,,0,0,
117,9.785610914230347,0.08632683753967285,11.58388316426435,11.95633068037247,-43.0,4.0,574.0,1527,1301.0866674812519,165.134267439807,0,0,0,,0,0,
118,9.871148824691772,0.08553791046142578,11.690722798880627,11.954029069527737,-55.0,47.0,696.0,1546,1350.0693339850015,246.63596916091612,0,0,0,,0,0,
119,9.953015804290771,0.08186697959899902,12.214937022206042,11.95617512721107,-122.0,-20.0,619.0,1518,1383.6554671880012,279.3592757075458,0,0,0,,0,0,
120,10.037071943283081,0.08405613899230957,11.896811012120025,11.95567797840737,-25.0,-11.0,504.0,,1383.6554671880012,279.3592757075458,0,0,0,,0,0,
121,10.119765758514404,0.08269381523132324,12.092802795501134,11.956798495873779,-151.0,25.0,176.0,1345,1375.924373750401,204.789302899138,0,0,0,,0,0,
122,10.203152894973755,0.08338713645935059,11.992257348799575,11.957088289846098,42.0,-14.0,-45.0,1247,1350.139499000321,101.9876715774057,0,0,0,,0,0,
123,10.29126787185669,0.08811497688293457,11.348808515589276,11.95188013095699,-153.0,-22.0,-397.0,,1350.139499000321,101.9876715774057,0,0,0,,0,0,
124,10.376737833023071,0.08546996116638184,11.700017015958737,11.949805612837276,-29.0,14.0,-604.0,1093,1298.7115992002568,-38.75132328922962,0,0,0,,0,0,
125,10.470265865325928,0.09352803230285645,10.691981595013829,11.938569813585998,51.0,-33.0,-623.0,1074,1253.7692793602055,-127.10554994479452,0,0,0,,0,0,
126,10.555157899856567,0.08489203453063965,11.779668204783984,11.937291814621949,-91.0,0.0,-610.0,1116,1226.2154234881643,-166.59949594285234,0,0,0,,0,0,
127,10.635689973831177,0.08053207397460938,12.417412723224858,11.94092722827386,-23.0,-23.0,-410.0,1205,1221.9723387905315,-143.8172235363033,0,0,0,,0,0,
128,10.719850063323975,0.08416008949279785,11.882116642539653,11.940465514338564,32.0,31.0,-88.0,1294,1236.3778710324252,-80.82013594983317,0,0,0,,0,0,
129,10.80315613746643,0.08330607414245605,12.003926607920185,11.940954880085,-72.0,69.0,177.0,1391,1267.3022968259402,9.586798763618958,0,0,0,,0,0,
130,10.886110067367554,0.08295392990112305,12.05488397224761,11.941823038303728,-39.0,35.0,439.0,1532,1320.2418374607523,135.30544299024479,0,0,0,,0,0,
131,10.97079086303711,0.08468079566955566,11.809052951063835,11.940798219148121,-88.0,21.0,622.0,1569,1369.9934699686019,225.74828692960864,0,0,0,,0,0,
