Index,Time,Difference,Hz,AveHz,0x6103 Linear-Acceleration-X,0x6103 Linear-Acceleration-Y,0x6103 Linear-Acceleration-Z,0x6103 Range,0x6103 Smoothed Range,0x6103 Velocity,0x6104 Linear-Acceleration-X,0x6104 Linear-Acceleration-Y,0x6104 Linear-Acceleration-Z,0x6104 Range,0x6104 Smoothed Range,0x6104 Velocity,
0,9.5367431640625e-07,9.5367431640625e-07,1048576.0,0.0,0.0,4.0,60.0,1785,1796.2,-587202.5599999905,0,0,0,,0,0,
1,0.08619999885559082,0.08619904518127441,11.60105657663638,11.600928228262283,3.0,6.0,90.0,1790,1794.96,-469764.92506202345,0,0,0,,0,0,
2,0.1690831184387207,0.08288311958312988,12.065182935073079,11.828501972684176,3.0,3.0,98.0,1766,1789.1680000000001,-375825.91635753075,0,0,0,,0,0,
3,0.2609269618988037,0.09184384346008301,10.888046082638278,11.497470319542913,7.0,4.0,78.0,1780,1787.3344000000002,-300664.725950284,0,0,0,,0,0,
4,0.34455299377441406,0.08362603187561035,11.95799893372259,11.609244651111295,11.0,2.0,53.0,1827,1795.2675200000003,-240512.807912127,0,0,0,,0,0,
5,0.4224569797515869,0.07790398597717285,12.836313668122404,11.83552465612025,12.0,4.0,9.0,1785,1793.2140160000004,-192415.51821399416,0,0,0,,0,0,
6,0.5165548324584961,0.09409785270690918,10.627235066827136,11.61541742130945,12.0,4.0,-36.0,1837,1801.9712128000006,-153913.80161341134,0,0,0,,0,0,
7,0.6112570762634277,0.09470224380493164,10.55941189798847,11.45181016601152,10.0,6.0,-75.0,1766,1794.7769702400005,-123146.2346848261,0,0,0,,0,0,
8,0.6945178508758545,0.08326077461242676,12.010457561257772,11.518782404096918,13.0,5.0,-83.0,1804,1796.6215761920005,-98512.55683556014,0,0,0,,0,0,
9,0.7772572040557861,0.08273935317993164,12.086147178662609,11.579178620715675,8.0,8.0,-74.0,1724,1782.0972609536004,-78845.15407077625,0,0,0,,0,0,
10,0.8616721630096436,0.08441495895385742,11.84624161869955,11.605341833339558,10.0,8.0,-54.0,1790,1783.6778087628804,-63072.37854637327,0,0,0,,0,0,
11,0.9412021636962891,0.07953000068664551,12.573871386473126,11.687180952496753,5.0,10.0,-14.0,1794,1785.7422470103045,-50452.71124089693,0,0,0,,0,0,
12,1.023010015487671,0.08180785179138184,12.223765544535988,11.730090437364463,4.0,8.0,23.0,1780,1784.5937976082437,-40364.97666796366,0,0,0,,0,0,
13,1.1167879104614258,0.09377789497375488,10.663493782621849,11.640527156699575,1.0,10.0,69.0,1827,1793.0750380865952,-32273.893403348964,0,0,0,,0,0,
14,1.2018070220947266,0.08501911163330078,11.76206126821389,11.649124811734142,2.0,8.0,83.0,1794,1793.2600304692762,-25818.679544331324,0,0,0,,0,0,
15,1.2852787971496582,0.08347177505493164,11.98009745619898,11.670619661092406,0.0,8.0,96.0,1790,1792.608024375421,-20656.505854774343,0,0,0,,0,0,
16,1.381269931793213,0.09599113464355469,10.417628708248058,11.583543253727562,3.0,7.0,74.0,1804,1794.8864195003368,-16520.457588927067,0,0,0,,0,0,
17,1.4642410278320312,0.08297109603881836,12.05238990132354,11.610110410012453,2.0,4.0,39.0,1776,1791.1091356002696,-13225.471130807975,0,0,0,,0,0,
18,1.5492010116577148,0.0849599838256836,11.770247061860877,11.618892490096679,5.0,2.0,-11.0,1752,1783.2873084802159,-10598.78987218202,0,0,0,,0,0,
19,1.637843132019043,0.08864212036132812,11.28131858673667,11.600622567912133,6.0,3.0,-40.0,1771,1780.8298467841728,-8484.57657940717,0,0,0,,0,0,
20,1.7224690914154053,0.0846259593963623,11.816705029201543,11.611238831325206,10.0,2.0,-72.0,1757,1776.0638774273384,-6798.924874339322,0,0,0,,0,0,
21,1.802729845046997,0.0802607536315918,12.459389611392654,11.649000019441367,12.0,5.0,-87.0,1785,1777.8511019418709,-5434.686354161539,0,0,0,,0,0,
22,1.901256799697876,0.0985269546508789,10.149506838442402,11.571293264274434,15.0,5.0,-80.0,1818,1785.8808815534967,-4331.449422713355,0,0,0,,0,0,
23,1.9869091510772705,0.08565235137939453,11.675102713415653,11.575768317101849,14.0,4.0,-37.0,1837,1796.1047052427975,-3441.286699831396,0,0,0,,0,0,
24,2.0708019733428955,0.083892822265625,11.919970898508549,11.589712733978518,13.0,9.0,1.0,1780,1792.8837641942382,-2760.7080645780447,0,0,0,,0,0,
25,2.155550956726074,0.08474898338317871,11.799551570768266,11.59796288832386,15.0,9.0,32.0,1757,1785.7070113553907,-2225.5029447089637,0,0,0,,0,0,
26,2.2358591556549072,0.08030819892883301,12.45202872606038,11.628639458009294,13.0,9.0,73.0,1841,1796.7656090843127,-1752.8619604490746,0,0,0,,0,0,
27,2.322406053543091,0.0865468978881836,11.554429152295842,11.625873933117111,10.0,11.0,95.0,1823,1802.01248726745,-1390.1646319117021,0,0,0,,0,0,
28,2.400864839553833,0.07845878601074219,12.745545156193023,11.662464099896354,7.0,12.0,83.0,1780,1797.60998981396,-1123.354151548058,0,0,0,,0,0,
29,2.4880599975585938,0.08719515800476074,11.468526726511595,11.65566747926345,4.0,10.0,78.0,1766,1791.2879918511683,-913.1841217586924,0,0,0,,0,0,
30,2.570020914077759,0.08196091651916504,12.200937257286142,11.67305675828143,0.0,7.0,33.0,1809,1794.8303934809346,-721.9031734019765,0,0,0,,0,0,
31,2.653820037841797,0.08379912376403809,11.933299002216348,11.681274373529323,0.0,4.0,-11.0,1841,1804.064314784748,-555.4843099453133,0,0,0,,0,0,
32,2.740976095199585,0.08715605735778809,11.473671828624108,11.674673141456168,3.0,1.0,-38.0,1799,1803.0514518277985,-446.7116993913322,0,0,0,,0,0,
33,2.8228111267089844,0.08183503150939941,12.219705687840323,11.690473970347968,2.0,1.0,-73.0,1823,1807.041161462239,-347.618744010505,0,0,0,,0,0,
34,2.9017598628997803,0.0789487361907959,12.666447219412023,11.717027461405161,4.0,1.0,-90.0,1823,1810.232929169791,-270.00932376753747,0,0,0,,0,0,
35,2.9868247509002686,0.08506488800048828,11.755731695012164,11.718129759521558,9.0,0.0,-71.0,1827,1813.5863433358331,-208.1230915743813,0,0,0,,0,0,
36,3.070176839828491,0.08335208892822266,11.997299802061761,11.72570893408572,-48.0,86.0,-110.0,1757,1802.2690746686667,-193.65380628760022,0,0,0,,0,0,
37,3.157457113265991,0.0872802734375,11.457342657342657,11.718290596741681,68.0,9.0,106.0,1799,1801.6152597349335,-156.421241376134,0,0,0,,0,0,
38,3.235219955444336,0.07776284217834473,12.859612277372218,11.745723791067848,119.0,-12.0,-22.0,1738,1788.892207787947,-157.85969610552968,0,0,0,,0,0,
39,3.3192479610443115,0.08402800559997559,11.900794179985757,11.749649456056217,-6.0,25.0,-68.0,,1788.892207787947,-157.85969610552968,0,0,0,,0,0,
40,3.3966519832611084,0.07740402221679688,12.919225272288207,11.776302134314097,-12.0,83.0,-25.0,1724,1775.9137662303576,-159.8220389175685,0,0,0,,0,0,
41,3.481199026107788,0.08454704284667969,11.82773478918041,11.777551266823352,18.0,31.0,44.0,1705,1761.7310129842863,-161.4075999290387,0,0,0,,0,0,
42,3.573362112045288,0.0921630859375,10.850331125827815,11.75363668250247,-40.0,-60.0,-20.0,,1761.7310129842863,-161.4075999290387,0,0,0,,0,0,
43,3.6539669036865234,0.08060479164123535,12.406210346041334,11.768032150651631,1.0,9.0,-69.0,1799,1769.184810387429,-110.63140425119785,0,0,0,,0,0,
44,3.739941120147705,0.08597421646118164,11.631394168640218,11.764891100280815,40.0,9.0,37.0,1850,1785.3478483099434,-50.905390393069396,0,0,0,,0,0,
45,3.82283091545105,0.08288979530334473,12.06421123782952,11.77138120813029,-24.0,-86.0,18.0,1902,1808.6782786479548,15.568335658991693,0,0,0,,0,0,
46,3.908704996109009,0.08587408065795898,11.644957271601578,11.768603679682027,-38.0,23.0,-30.0,1944,1835.7426229183638,75.48729504975901,0,0,0,,0,0,
47,3.9877328872680664,0.07902789115905762,12.653760404504823,11.786145493862044,70.0,89.0,39.0,1991,1866.7940983346912,138.97342206472274,0,0,0,,0,0,
48,4.071259021759033,0.0835261344909668,11.972300718742686,11.789964662887272,98.0,-24.0,42.0,,1866.7940983346912,138.97342206472274,0,0,0,,0,0,
49,4.147145748138428,0.07588672637939453,13.177535093561886,11.815355180607082,-5.0,-39.0,12.0,1874,1868.235278667753,114.97697853479272,0,0,0,,0,0,
50,4.228711128234863,0.08156538009643555,12.26010347549034,11.823933696050517,-20.0,67.0,-17.0,1986,1891.7882229342024,149.73388959965965,0,0,0,,0,0,
51,4.310249090194702,0.08153796195983887,12.264226085176684,11.83226280727461,21.0,59.0,69.0,1991,1911.630578347362,168.45733824961138,0,0,0,,0,0,
52,4.398746013641357,0.08849692344665527,11.29982784771932,11.821550923544574,-2.0,9.0,-17.0,1967,1922.7044626778898,159.79246790779322,0,0,0,,0,0,
53,4.477849960327148,0.07910394668579102,12.64159428065078,11.83603748887733,36.0,23.0,17.0,1911,1920.363570142312,121.91545158835909,0,0,0,,0,0,
54,4.561105966567993,0.08325600624084473,12.011145443455202,11.83923381649305,47.0,42.0,12.0,,1920.363570142312,121.91545158835909,0,0,0,,0,0,
55,4.650566101074219,0.08946013450622559,11.178163385506751,11.826517203420833,3.0,-14.0,-11.0,1897,1915.6908561138498,87.08588909790724,0,0,0,,0,0,
56,4.739783048629761,0.08921694755554199,11.208632747465948,11.814886762842283,7.0,25.0,-16.0,1897,1911.95268489108,61.28875360169137,0,0,0,,0,0,
57,4.823948860168457,0.08416581153869629,11.881308832152559,11.81604566139814,-24.0,74.0,6.0,1827,1894.962147912864,8.657039468894816,0,0,0,,0,0,
58,4.906672954559326,0.08272409439086914,12.088376516701732,11.820637025768319,-35.0,20.0,16.0,1818,1879.5697183302914,-30.288265285075596,0,0,0,,0,0,
59,4.987545013427734,0.0808720588684082,12.365210110789441,11.829467170954258,-13.0,-28.0,3.0,1859,1875.455774664233,-34.40456779101287,0,0,0,,0,0,
60,5.069843769073486,0.08229875564575195,12.150852004426598,11.834684209798638,22.0,14.0,-7.0,1757,1851.7646197313866,-85.09719771340218,0,0,0,,0,0,
61,5.156079053878784,0.08623528480529785,11.59618133410009,11.830695255556892,39.0,32.0,-4.0,1809,1843.2116957851092,-87.9140095742816,0,0,0,,0,0,
62,5.242686033248901,0.08660697937011719,11.546413548571806,11.825999040720449,15.0,0.0,-35.0,1809,1836.3693566280874,-86.13210316873725,0,0,0,,0,0,
63,5.324629783630371,0.08194375038146973,12.203493193132323,11.83180851252463,27.0,1.0,40.0,,1836.3693566280874,-86.13210316873725,0,0,0,,0,0,
64,5.399630069732666,0.07500028610229492,13.33328247089715,11.85266382575883,32.0,14.0,4.0,1724,1813.89548530247,-128.83577745480042,0,0,0,,0,0,
65,5.483146905899048,0.08351683616638184,11.973633651636478,11.854506383928852,1.0,29.0,-40.0,1752,1801.516388241976,-132.71317659192115,0,0,0,,0,0,
66,5.565236806869507,0.08208990097045898,12.181766431413552,11.859333625935239,26.0,24.0,14.0,,1801.516388241976,-132.71317659192115,0,0,0,,0,0,
67,5.65050196647644,0.0852651596069336,11.728119722169405,11.857353629376771,25.0,-11.0,10.0,1733,1787.8131105935809,-138.31327744283834,0,0,0,,0,0,
68,5.738731861114502,0.08822989463806152,11.334026908931722,11.849307764449884,14.0,19.0,28.0,1729,1776.0504884748648,-137.31419707689537,0,0,0,,0,0,
69,5.820572137832642,0.08184027671813965,12.218922517137006,11.854504740438276,-3.0,45.0,-4.0,,1776.0504884748648,-137.31419707689537,0,0,0,,0,0,
70,5.899724006652832,0.07915186882019043,12.633940485621425,11.864961805173326,10.0,29.0,39.0,1682,1757.240390779892,-157.38048862291822,0,0,0,,0,0,
71,5.9804887771606445,0.0807647705078125,12.381636123181561,11.87193934234062,6.0,-8.0,-22.0,1748,1755.3923126239138,-130.4808371492394,0,0,0,,0,0,
72,6.061122894287109,0.08063411712646484,12.401698383224327,11.878986989005512,12.0,28.0,22.0,1663,1736.9138500991312,-150.21753348300498,0,0,0,,0,0,
73,6.150550842285156,0.08942794799804688,11.182186580215843,11.86885563129136,0.0,53.0,52.0,1837,1756.931080079305,-75.40674669492515,0,0,0,,0,0,
74,6.231423854827881,0.08087301254272461,12.365064297211724,11.875295554268465,-13.0,19.0,0.0,2010,1807.544864063444,64.8431413018726,0,0,0,,0,0,
75,6.315174102783203,0.08375024795532227,11.940263156396432,11.876157138240455,25.0,-10.0,22.0,1705,1787.0358912507554,2.8980065513216715,0,0,0,,0,0,
76,6.402825832366943,0.08765172958374023,11.408787992536135,11.869759070411096,24.0,10.0,-34.0,2272,1884.0287130006045,223.6325132694326,0,0,0,,0,0,
77,6.489371061325073,0.08654522895812988,11.554651966820662,11.865556657547222,12.0,46.0,62.0,2268,1960.8229704004839,356.37219407675576,0,0,0,,0,0,
78,6.571943044662476,0.08257198333740234,12.110645276786435,11.868636028936546,8.0,-19.0,5.0,1804,1929.458376320387,209.12866063051496,0,0,0,,0,0,
79,6.65861701965332,0.08667397499084473,11.537488618765078,11.864325544903185,4.0,-27.0,-32.0,2000,1943.5667010563097,199.8578557185219,0,0,0,,0,0,
80,6.739403963088989,0.08078694343566895,12.378237837359265,11.870485941806075,12.0,30.0,-36.0,2211,1997.053360845048,292.300403773002,0,0,0,,0,0,
81,6.821367979049683,0.08196401596069336,12.200475882972349,11.874451026359159,10.0,65.0,-10.0,2193,2036.2426886760386,329.46601283278113,0,0,0,,0,0,
82,6.906710863113403,0.0853428840637207,11.71743855355716,11.872510899209134,9.0,85.0,338.0,2066,2042.194150940831,277.51998894452856,0,0,0,,0,0,
83,6.992759943008423,0.08604907989501953,11.621274756453024,11.869419324623886,-44.0,30.0,717.0,2591,2151.955320752665,477.1289335502273,0,0,0,,0,0,
84,7.074113845825195,0.08135390281677246,12.29197328433312,11.874278790349521,-6.0,2.0,441.0,1612,2043.9642566021323,116.21849174317123,0,0,0,,0,0,
85,7.159090995788574,0.0849771499633789,11.767869367600023,11.873015729231872,-23.0,51.0,62.0,1935,2022.171405281706,41.68370789727576,0,0,0,,0,0,
86,7.2459471225738525,0.08685612678527832,11.51329257948784,11.868703779534581,2.0,-14.0,-313.0,2010,2019.7371242253648,27.741648313348403,0,0,0,,0,0,
87,7.327859163284302,0.08191204071044922,12.208217391810551,11.87249891972639,-52.0,-19.0,-696.0,1574,1930.589699380292,-195.4729098350699,0,0,0,,0,0,
88,7.416306018829346,0.08844685554504395,11.30622444221008,11.865745531073795,31.0,7.0,-765.0,1372,1818.8717595042338,-408.99994836006493,0,0,0,,0,0,
89,7.498571872711182,0.08226585388183594,12.15571166910111,11.868926711750138,5.0,-77.0,-809.0,1738,1802.697407603387,-366.5221103163059,0,0,0,,0,0,
90,7.586599111557007,0.0880272388458252,11.360120039110216,11.863023032665449,18.0,-19.0,-667.0,1630,1768.1579260827098,-371.69221948574943,0,0,0,,0,0,
91,7.669837951660156,0.08323884010314941,12.013622471922986,11.864657450853029,79.0,-8.0,-243.0,1607,1735.926340866168,-374.797394881229,0,0,0,,0,0,
92,7.745917081832886,0.07607913017272949,13.144209163927183,11.877224998415604,35.0,2.0,-2.0,1724,1733.5410726929344,-306.10840866119116,0,0,0,,0,0,
93,7.826683044433594,0.08076596260070801,12.38145337218124,11.88242828692832,82.0,34.0,412.0,,1733.5410726929344,-306.10840866119116,0,0,0,,0,0,
94,7.904433012008667,0.07774996757507324,12.861741698276946,11.892061057028657,-12.0,30.0,594.0,1916,1770.0328581543477,-151.017143186226,0,0,0,,0,0,
95,7.986424922943115,0.08199191093444824,12.196325083818214,11.895184756208927,48.0,-21.0,781.0,2033,1822.626286523478,7.475595383503446,0,0,0,,0,0,
96,8.066609144210815,0.0801842212677002,12.471281558767473,11.900911310286624,52.0,9.0,739.0,2028,1863.7010292187824,108.4314125282165,0,0,0,,0,0,
97,8.16497802734375,0.09836888313293457,10.165816345079486,11.880007475238273,25.0,-12.0,464.0,1864,1863.760823375026,86.86670130474923,0,0,0,,0,0,
98,8.252856016159058,0.08787798881530762,11.379413815462835,11.87467705823492,64.0,-13.0,143.0,1855,1862.0086587000208,65.50563966185551,0,0,0,,0,0,
99,8.337642908096313,0.08478689193725586,11.794275944682838,11.873859445799186,10.0,-28.0,-254.0,1691,1827.8069269600167,-28.27242065604078,0,0,0,,0,0,
100,8.421517848968506,0.08387494087219238,11.922512130575303,11.874344007030551,48.0,-28.0,-511.0,1555,1773.2455415680133,-152.7196923642634,0,0,0,,0,0,
101,8.496893167495728,0.07537531852722168,13.266942276852223,11.886697644542414,19.0,-30.0,-719.0,1546,1727.7964332544109,-242.76989319760435,0,0,0,,0,0,
102,8.578752994537354,0.08185982704162598,12.216004310533137,11.889839941183759,17.0,-19.0,-803.0,1447,1671.637146603529,-331.42433211881155,0,0,0,,0,0,
103,8.666533946990967,0.08778095245361328,11.391993046879243,11.884797386129405,54.0,-38.0,-606.0,1579,1653.109717282823,-307.35233489465463,0,0,0,,0,0,
104,8.754634857177734,0.08810091018676758,11.3506205313892,11.879421780193685,1.0,2.0,-427.0,1649,1652.2877738262584,-247.7477815704685,0,0,0,,0,0,
105,8.83787202835083,0.0832371711730957,12.013863348628846,11.880687982714916,61.0,-4.0,35.0,1785,1678.8302190610068,-134.4227632586285,0,0,0,,0,0,
106,8.919557094573975,0.08168506622314453,12.24213979662125,11.883998148796298,25.0,41.0,314.0,1855,1714.0641752488054,-21.270407159090922,0,0,0,,0,0,
107,9.00443696975708,0.08487987518310547,11.781355684639843,11.883030594736521,78.0,32.0,631.0,1906,1752.4513401990446,73.4342430734687,0,0,0,,0,0,
108,9.091413974761963,0.08697700500488281,11.49729172605864,11.879340254421505,56.0,67.0,742.0,1892,1780.3610721592358,122.92466052725925,0,0,0,,0,0,
109,9.173014879226685,0.08160090446472168,12.254766127406437,11.882679951478401,56.0,72.0,703.0,1864,1797.0888577273888,139.33874841523127,0,0,0,,0,0,
110,9.264214992523193,0.09120011329650879,10.964898659158582,11.873644997312448,61.0,6.0,497.0,1823,1802.271086181911,122.83552069867369,0,0,0,,0,0,
111,9.346922874450684,0.08270788192749023,12.090746089673742,11.875566054301421,64.0,40.0,250.0,1771,1796.0168689455288,83.14478603998744,0,0,0,,0,0,
112,9.426929950714111,0.08000707626342773,12.49889443163058,11.880856289964873,34.0,-25.0,-158.0,1743,1785.4134951564233,40.0097389101603,0,0,0,,0,0,
113,9.512030839920044,0.08510088920593262,11.75075853297062,11.879692349793713,43.0,10.0,-443.0,1804,1789.1307961251387,40.74401234367858,0,0,0,,0,0,
114,9.594026803970337,0.08199596405029297,12.195722211237628,11.882393319228887,-12.0,-28.0,-704.0,1270,1685.304636900111,-220.65178935868988,0,0,0,,0,0,
115,9.680217981338501,0.08619117736816406,11.60211555909624,11.879897769006513,2.0,-5.0,-740.0,1377,1623.643709520089,-319.6008724757633,0,0,0,,0,0,
116,9.763823986053467,0.08360600471496582,11.960863378285506,11.880591064084426,17.0,9.0,-589.0,1715,1641.9149676160714,-211.97269361352303,0,0,0,,0,0,
117,9.846671104431152,0.08284711837768555,12.070425858883523,11.882188280600559,-20.0,-5.0,-429.0,1405,1594.5319740928571,-283.9647369496017,0,0,0,,0,0,
118,9.92620301246643,0.07953190803527832,12.573569837610655,11.887727850397827,11.0,18.0,-45.0,1776,1630.825579274286,-135.90375367820874,0,0,0,,0,0,
119,10.012024879455566,0.08582186698913574,11.652042015429364,11.885707579910747,-25.0,-7.0,204.0,2207,1746.060463419429,159.82133939790134,0,0,0,,0,0,
120,10.097119808197021,0.08509492874145508,11.75158161349793,11.884577214046907,15.0,32.0,574.0,2019,1800.6483707355433,256.15592110539666,0,0,0,,0,0,
121,10.179176092147827,0.08205628395080566,12.186757087361151,11.887013143759138,10.0,10.0,717.0,2675,1975.5186965884348,631.1451734756931,0,0,0,,0,0,
122,10.262380838394165,0.08320474624633789,12.018545156539231,11.888079571512987,1.0,-7.0,695.0,2146,2009.614957270748,586.8736285164574,0,0,0,,0,0,
123,10.34706711769104,0.084686279296875,11.808288288288288,11.887426514292061,47.0,18.0,564.0,2061,2019.8919658165985,493.7696787432871,0,0,0,,0,0,
124,10.431390047073364,0.08432292938232422,11.859170540268494,11.887198104991722,7.0,-13.0,256.0,1579,1931.7135726532788,185.87122249649894,0,0,0,,0,0,
125,10.51458191871643,0.0831918716430664,12.020405121914871,11.888252045237705,34.0,-1.0,-34.0,1790,1903.370858122623,80.55879581454616,0,0,0,,0,0,
126,10.598398208618164,0.0838162899017334,11.930854982634099,11.888588965976217,-2.0,-34.0,-432.0,1546,1831.8966864980987,-106.10255867958337,0,0,0,,0,0,
127,10.680917978286743,0.0825197696685791,12.118308182587768,11.890363755079715,34.0,-6.0,-597.0,1794,1824.317349198479,-103.2517959869816,0,0,0,,0,0,
128,10.76502013206482,0.08410215377807617,11.890301913536499,11.890363271940165,14.0,-33.0,-725.0,1536,1766.6538793587833,-219.72864994480267,0,0,0,,0,0,
129,10.846277952194214,0.08125782012939453,12.306507834047297,11.893480931299862,25.0,-32.0,-662.0,1602,1733.723103487027,-256.8354902052473,0,0,0,,0,0,
130,10.930196762084961,0.08391880989074707,11.916279571908712,11.893655972502566,41.0,-11.0,-414.0,1574,1701.7784827896216,-281.60059837397046,0,0,0,,0,0,
131,11.017873048782349,0.0876762866973877,11.405592522998523,11.889772138414465,36.0,-46.0,-111.0,1668,1695.0227862316974,-240.6910231289179,0,0,0,,0,0,
