Index,Time,Difference,Hz,AveHz,0x6103 Linear-Acceleration-X,0x6103 Linear-Acceleration-Y,0x6103 Linear-Acceleration-Z,0x6103 Range,0x6103 Smoothed Range,0x6103 Velocity,
0,0.0,0.0,0,0,22.0,29.0,-17.0,1658,1665.0,,
1,0.026746034622192383,0.026746034622192383,37.388720014975796,37.388720014975796,6.0,-14.0,-18.0,1672,1668.5,65.43026002620765,
2,0.05216693878173828,0.0254209041595459,39.337703872522816,38.338458163470506,-3.0,10.0,-56.0,1663,1665.75,-21.374212811615045,
3,0.07731509208679199,0.02514815330505371,39.76435119786877,38.802256054125564,6.0,4.0,-52.0,1654,1659.875,-127.49488804954704,
4,0.10235095024108887,0.025035858154296875,39.94270912692366,39.081219965012075,29.0,1.0,-18.0,1658,1658.9375,-82.47058892801898,
5,0.12856793403625488,0.026216983795166016,38.14321310998345,38.88994590665235,33.0,21.0,6.0,1701,1679.96875,359.86443089566023,
6,0.15543198585510254,0.026864051818847656,37.22446661223331,38.602093172722796,9.0,-11.0,-5.0,1696,1687.984375,329.1208980421714,
7,0.18211603164672852,0.026684045791625977,37.47557652272585,38.43703344897558,-11.0,-25.0,-14.0,1691,1689.4921875,192.813520383922,
8,0.20944690704345703,0.027330875396728516,36.58865607062477,38.195837374385874,-13.0,-4.0,-23.0,1696,1692.74609375,155.93478852561418,
9,0.2344188690185547,0.024971961975097656,40.044911208707276,38.39281384506481,7.0,6.0,0.0,1719,1705.873046875,340.8012304285508,
10,0.2641489505767822,0.02973008155822754,33.635965580567294,37.857428462859716,29.0,3.0,24.0,1701,1703.4365234375,129.42320597427766,
11,0.2920660972595215,0.027917146682739258,35.82027960680826,37.662707528240496,-11.0,-16.0,-17.0,1682,1692.71826171875,-127.25396284514832,
12,0.3197188377380371,0.027652740478515625,36.16278107325148,37.532977677819055,-9.0,-22.0,-6.0,1710,1701.359130859375,92.6119480849441,
13,0.3464031219482422,0.026684284210205078,37.4752416861743,37.52853013242298,1.0,-13.0,-7.0,1677,1689.1795654296875,-181.91010501258415,
14,0.37324094772338867,0.026837825775146484,37.26084252793916,37.50928210153269,-10.0,-19.0,1.0,1776,1732.5897827148438,717.7955826766229,
15,0.39937400817871094,0.026133060455322266,38.26570568378798,37.55877872074198,-5.0,10.0,-2.0,1733,1732.7948913574219,362.8221048133593,
16,0.42607998847961426,0.02670598030090332,37.44479658611054,37.55163451138123,10.0,18.0,0.0,1724,1728.397445678711,99.08032293777873,
17,0.4531278610229492,0.02704787254333496,36.97148448174037,37.51700449763122,0.0,19.0,-15.0,1691,1709.6987228393555,-296.1196091729081,
18,0.4787919521331787,0.025664091110229492,38.964948951627136,37.594616868149025,0.0,-11.0,-16.0,1710,1709.8493614196777,-145.12499229025272,
19,0.5070357322692871,0.0282437801361084,35.406025510074876,37.47270417207812,-13.0,5.0,-9.0,1687,1698.4246807098389,-274.813764473634,
20,0.5352699756622314,0.028234243392944336,35.417984682029676,37.364322508947325,-15.0,5.0,11.0,1719,1708.7123403549194,44.77720362488216,
21,0.5621259212493896,0.026855945587158203,37.23570249107793,37.35817760071458,6.0,-8.0,24.0,1743,1725.8561701774597,341.5698752273307,
22,0.5872938632965088,0.02516794204711914,39.73308576950039,37.459952120924505,-39.0,-21.0,26.0,1710,1717.9280850887299,13.281295204465096,
23,0.6152827739715576,0.027988910675048828,35.72843586554679,37.3811862983559,-69.0,-13.0,38.0,1710,1713.964042544365,-64.1738723050881,
24,0.6407349109649658,0.025452136993408203,39.289431777731984,37.45698820102574,-94.0,0.0,87.0,1663,1688.4820212721825,-532.6740043186081,
25,0.6680970191955566,0.02736210823059082,36.54689147388141,37.41971492419176,24.0,36.0,341.0,1654,1671.2410106360912,-581.3896744679348,
26,0.6948049068450928,0.026707887649536133,37.44212245918176,37.42057625651846,-79.0,55.0,659.0,1640,1655.6205053180456,-583.1272737302493,
27,0.7201168537139893,0.025311946868896484,39.507036150933445,37.4939148566625,-43.0,-158.0,711.0,1560,1607.8102526590228,-1235.9843269577627,
28,0.7475900650024414,0.02747321128845215,36.39909399380375,37.45368124964122,-73.0,-47.0,604.0,1602,1604.9051263295114,-670.8641466447611,
29,0.7817599773406982,0.034169912338256836,29.265512597771405,37.09578494750893,-64.0,-40.0,583.0,1832,1718.4525631647557,1326.0798982508668,
30,0.8070449829101562,0.025285005569458008,39.549131094829946,37.1726491524943,-24.0,114.0,521.0,1672,1695.2262815823779,203.75032155198545,
31,0.8340888023376465,0.027043819427490234,36.97702547826854,37.16630640900383,7.0,134.0,507.0,1565,1630.113140791189,-1101.9699722269468,
32,0.8603310585021973,0.02624225616455078,38.106479630773705,37.19498405150077,11.0,159.0,329.0,1597,1613.5565703955945,-866.441292381069,
33,0.8880569934844971,0.027725934982299805,36.067313893594516,37.15977717884622,24.0,24.0,211.0,1630,1621.7782851977972,-284.9530619332047,
34,0.9152240753173828,0.027167081832885742,36.80925342483786,37.14937239627293,39.0,18.0,129.0,1364,1492.8891425988986,-2514.6330877830646,
35,0.9431390762329102,0.027915000915527344,35.82303303611083,37.1101154453245,-7.0,-216.0,-11.0,1668,1580.4445712994493,310.9339635238043,
36,0.969559907913208,0.02642083168029785,37.848922096790204,37.130248173610134,-5.0,-105.0,-69.0,1541,1560.7222856497247,-217.76664480163373,
37,0.9979219436645508,0.028362035751342773,35.258399952924954,37.077048194901174,1.0,199.0,-246.0,1546,1553.3611428248623,-238.65438131561675,
38,1.0254220962524414,0.027500152587890625,36.363434595644335,37.05791023899006,28.0,139.0,-337.0,1485,1519.1805714124312,-740.7886771566539,
39,1.053879976272583,0.0284578800201416,35.13965198012751,37.00611158581569,34.0,-196.0,-454.0,1743,1631.0902857062156,1595.8398681612161,
40,1.0810401439666748,0.027160167694091797,36.81862392247055,37.00140112579675,15.0,-324.0,-498.0,1396,1513.5451428531078,-1366.0052702302182,
41,1.1083879470825195,0.027347803115844727,36.56600845647531,36.9906584674793,118.0,6.0,-506.0,1424,1468.772571426554,-1501.5797478158663,
42,1.1345179080963135,0.026129961013793945,38.27024462348422,37.02012960771569,-3.0,127.0,-676.0,1415,1441.886285713277,-1265.2622395399321,
43,1.1627287864685059,0.028210878372192383,35.447318825269384,36.98196905453903,16.0,65.0,-746.0,1466,1453.9431428566386,-418.9394901742327,
44,1.1892499923706055,0.02652120590209961,37.70567611787339,36.99810828864676,84.0,-140.0,-748.0,1433,1443.4715714283193,-406.8885854478084,
45,1.2143170833587646,0.02506709098815918,39.89294172476436,37.057866200425465,111.0,-270.0,-709.0,1195,1319.2357857141596,-2681.509772536546,
46,1.2389569282531738,0.02463984489440918,40.58467105963405,37.12800578536348,-1.0,77.0,-815.0,1429,1374.1178928570798,-227.0687535407692,
47,1.2700741291046143,0.03111720085144043,32.136566678159596,37.00571401539719,26.0,96.0,-763.0,1452,1413.05894642854,512.1815055381214,
48,1.2966959476470947,0.02662181854248047,37.5631739208311,37.01715894701288,43.0,114.0,-752.0,1527,1470.02947321427,1326.087655775933,
49,1.3238890171051025,0.027193069458007812,36.77407589254401,37.01216594964012,156.0,-292.0,-611.0,1368,1419.014736607135,-274.9660699264939,
50,1.3504729270935059,0.02658390998840332,37.61673886332858,37.02406690048221,23.0,-47.0,-574.0,1377,1398.0073683035675,-532.5973788037801,
51,1.3799898624420166,0.029516935348510742,33.8788559243314,36.95679322582189,0.0,-27.0,-543.0,1466,1432.0036841517838,309.57945388800084,
52,1.4057178497314453,0.02572798728942871,38.86817840627925,36.99177613056156,-9.0,102.0,-499.0,1494,1463.001842075892,757.2106931741291,
53,1.4335877895355225,0.02786993980407715,35.88095299200137,36.97018095918062,24.0,-32.0,-415.0,1475,1469.000921037946,486.2316817034465,
54,1.4634108543395996,0.02982306480407715,33.531094358326605,36.90009530807316,121.0,-206.0,-175.0,1508,1488.500460518973,570.036289992837,
55,1.4912419319152832,0.027831077575683594,35.93105575163623,36.88201010372643,28.0,-154.0,-168.0,1574,1531.2502302594864,1053.0403249544206,
56,1.519747018814087,0.02850508689880371,35.08145769034535,36.848238099324455,25.0,-68.0,-26.0,1602,1566.6251151297433,1147.0214259155878,
57,1.5453910827636719,0.02564406394958496,38.995379280209,36.883867543783865,-67.0,129.0,-30.0,1672,1619.3125575648717,1600.7941134887978,
58,1.5688700675964355,0.023478984832763672,42.59127927049696,36.96928203165865,-35.0,166.0,98.0,1696,1657.656278782436,1616.951126068079,
59,1.5939929485321045,0.025122880935668945,39.80435215852258,37.01396549735846,55.0,25.0,262.0,1677,1667.328139391218,1000.9666358840907,
60,1.6195850372314453,0.02559208869934082,39.074575418526,37.046526499507145,66.0,-95.0,380.0,1672,1669.664069695609,546.1210603677189,
61,1.6470699310302734,0.027484893798828125,36.383622484385846,37.035464524474285,-1.0,-103.0,453.0,1701,1685.3320348478046,558.0891947818586,
62,1.674698829650879,0.02762889862060547,36.19398709053881,37.02158197180147,-14.0,-42.0,531.0,1850,1767.6660174239023,1769.042148626893,
63,1.7023358345031738,0.027637004852294922,36.1833710036405,37.007973822266706,-58.0,23.0,559.0,1935,1851.3330087119512,2398.1979675803614,
64,1.7307660579681396,0.02843022346496582,35.17383538093841,36.9778455646015,-41.0,59.0,617.0,1977,1914.1665043559756,2304.1464998860934,
65,1.7565219402313232,0.025755882263183594,38.826082126856,37.00494625842242,24.0,45.0,717.0,1991,1952.5832521779878,1897.859152935128,
66,1.7840518951416016,0.02752995491027832,36.324069663719264,36.99443955623361,19.0,26.0,738.0,1996,1974.2916260889938,1343.1978195822876,
67,1.8097147941589355,0.025662899017333984,38.966758951299724,37.02240829121266,49.0,24.0,761.0,2014,1994.145813044497,1058.4255684257082,
68,1.8361101150512695,0.026395320892333984,37.885502664619274,37.03481585476764,69.0,-5.0,751.0,1626,1810.0729065222486,-2957.634511053573,
69,1.8624370098114014,0.026326894760131836,37.98397073073544,37.048232845731114,46.0,-28.0,707.0,2047,1928.5364532611243,771.0406904674965,
70,1.8899059295654297,0.02746891975402832,36.404780710510096,37.038880562746314,6.0,-66.0,661.0,1996,1962.2682266305621,999.5192514792531,
71,1.9181749820709229,0.028269052505493164,35.37437272811612,37.01434992304307,-25.0,-43.0,608.0,1986,1974.134113315281,709.6337749070433,
72,1.94582200050354,0.027647018432617188,36.17026560883063,37.00235683498688,-71.0,32.0,510.0,1925,1949.5670566576405,-89.48159481350183,
73,1.97568678855896,0.029864788055419922,33.48424901406651,36.94917657127486,-73.0,102.0,404.0,1906,1927.7835283288202,-409.4433408903455,
74,2.0038671493530273,0.028180360794067383,35.485706066989856,36.92859580231743,-42.0,90.0,313.0,1223,1575.3917641644102,-6457.156952228304,
75,2.030350923538208,0.026483774185180664,37.75896868051242,36.93942713572914,125.0,-32.0,320.0,1256,1415.6958820822051,-6243.5543810885465,
76,2.0583858489990234,0.02803492546081543,35.669793429545784,36.922134903404135,121.0,-110.0,227.0,1331,1373.3479410411026,-3877.0483450956294,
77,2.085939884185791,0.027554035186767578,36.29232499783681,36.91381548613303,16.0,-115.0,38.0,1374,1373.6739705205514,-1932.6079886342984,
78,2.113337993621826,0.027398109436035156,36.49886873890494,36.90843596027158,-28.0,-32.0,-95.0,1369,1371.3369852602757,-1008.9526534469284,
79,2.1405129432678223,0.027174949645996094,36.798596244955256,36.907041486698205,11.0,75.0,-214.0,1289,1330.1684926301377,-1261.9476958783957,
80,2.169843912124634,0.029330968856811523,34.09365728359737,36.869011431180255,57.0,95.0,-266.0,1256,1293.0842463150689,-1263.1426401824313,
81,2.194427728652954,0.024583816528320312,40.677166576150206,36.91167357319246,25.0,-81.0,-410.0,1256,1274.5421231575344,-1008.6918362684758,
82,2.220939874649048,0.02651214599609375,37.718561151079136,36.92130567602944,145.0,-170.0,-381.0,1252,1263.2710615787673,-716.9100308323907,
83,2.247922897338867,0.026983022689819336,37.06034018113541,36.92297458167135,-66.0,-131.0,-636.0,1261,1262.1355307893837,-379.4965940865513,
84,2.2852320671081543,0.03730916976928711,26.803062254770396,36.757754807063314,54.0,117.0,-643.0,1270,1266.0677653946918,-137.050332580057,
85,2.3117759227752686,0.026543855667114258,37.6735020164731,36.768269434157865,206.0,11.0,-595.0,1177,1221.533882697346,-907.3988260899475,
86,2.3389601707458496,0.027184247970581055,36.786009349318974,36.76847561392046,205.0,-61.0,-604.0,1247,1234.2669413486728,-219.50020574840417,
87,2.3647079467773438,0.02574777603149414,38.83830583180547,36.791012657002646,34.0,-196.0,-739.0,1424,1329.1334706743364,1732.47753670183,
88,2.3912999629974365,0.026592016220092773,37.60527188774824,36.800067478650455,53.0,21.0,-754.0,1419,1374.0667353371682,1711.1025855758849,
89,2.419039011001587,0.02773904800415039,36.05026386811751,36.79146950306938,85.0,76.0,-727.0,1475,1424.533367668584,1765.2189988293492,
90,2.446654796600342,0.027615785598754883,36.211173367636775,36.784919607398706,60.0,-26.0,-734.0,1433,1428.766683834292,959.2561722129095,
91,2.4733519554138184,0.026697158813476562,37.457169393441454,36.792175816633716,92.0,-118.0,-653.0,1410,1419.383341917146,303.8913722728956,
92,2.4989891052246094,0.025637149810791016,39.00589602901516,36.81488639052351,57.0,-205.0,-601.0,1438,1428.691670958573,333.4855435333295,
93,2.525479793548584,0.02649068832397461,37.74911349113491,36.824685842892656,23.0,-108.0,-582.0,1419,1423.8458354792865,75.27977503318752,
94,2.553123950958252,0.02764415740966797,36.174009038534514,36.81764058682675,93.0,152.0,-443.0,1400,1411.9229177396433,-178.0099795231855,
95,2.5782828330993652,0.02515888214111328,39.74739395777264,36.84622911823839,70.0,32.0,-380.0,1475,1443.4614588698216,537.7824198157152,
96,2.606661081314087,0.02837824821472168,35.23825686608921,36.82872341486138,-24.0,-157.0,-310.0,1541,1492.2307294349107,1128.1632515800638,
97,2.6344480514526367,0.027786970138549805,35.98809064154376,36.81985679942109,-60.0,-217.0,-254.0,1569,1530.6153647174553,1254.7764926854397,
98,2.661820888519287,0.02737283706665039,36.53256684957756,36.81690245301038,38.0,64.0,-38.0,1612,1571.3076823587276,1370.6856535897305,
99,2.689429998397827,0.02760910987854004,36.219929016157025,36.8107740521141,19.0,76.0,14.0,1640,1605.6538411793638,1307.3505440254148,
100,2.7162318229675293,0.02680182456970215,37.31089267446515,36.81570886344609,-66.0,30.0,95.0,1757,1681.3269205896818,2065.390344125034,
101,2.7438461780548096,0.027614355087280273,36.21304922165719,36.809643633741075,-7.0,2.0,245.0,1785,1733.163460294841,1971.274753974174,
102,2.7729740142822266,0.029127836227416992,34.33142071358997,36.7836119179798,-14.0,-45.0,333.0,1911,1822.0817301474203,2511.982642703801,
103,2.799254894256592,0.026280879974365234,38.05047627687562,36.79550590813706,3.0,-44.0,452.0,1897,1859.5408650737102,1968.6602837844378,
104,2.826658010482788,0.02740311622619629,36.4922000748236,36.792565501136444,-31.0,14.0,517.0,1804,1831.770432536855,477.6280517425634,
105,2.852881908416748,0.02622389793395996,38.13315634915584,36.80488830968521,-16.0,83.0,602.0,1672,1751.8852162684275,-1284.3236951037547,
106,2.8787341117858887,0.025852203369140625,38.68142245831489,36.82174034969852,-34.0,98.0,640.0,1654,1702.9426081342137,-1588.7466982775177,
107,2.9067671298980713,0.028033018112182617,35.67222037948954,36.81065431744856,-87.0,72.0,666.0,1654,1678.4713040671068,-1230.8462249664283,
108,2.933861017227173,0.027093887329101562,36.9086941217881,36.811559704376215,-88.0,72.0,691.0,1658,1668.2356520335534,-804.3153875049542,
109,2.9597349166870117,0.025873899459838867,38.648986850713676,36.82762242843338,-100.0,13.0,690.0,1892,1780.1178260167767,1759.9086418009513,
110,2.9862990379333496,0.02656412124633789,37.64476116964943,36.83489114878624,-75.0,-4.0,694.0,2178,1979.0589130083883,4624.4991742153115,
111,3.012507915496826,0.026208877563476562,38.155010552361546,36.84637621331984,-28.0,8.0,698.0,2202,2090.529456504194,4438.829468787628,
112,3.0392398834228516,0.02673196792602539,37.40839442749862,36.851319506199495,-24.0,11.0,697.0,1963,2026.764728252097,1026.7466818854589,
113,3.064976930618286,0.02573704719543457,38.85449610464201,36.86814046499363,-4.0,26.0,637.0,1935,1980.8823641260485,-377.99472816092964,
114,3.0915780067443848,0.026601076126098633,37.592464126625615,36.874372812623534,-32.0,53.0,529.0,1813,1896.9411820630244,-1766.7753018058572,
115,3.1186459064483643,0.027067899703979492,36.944129797147916,36.87497825970454,-31.0,85.0,456.0,1733,1814.9705910315122,-2397.553728211486,
116,3.1448917388916016,0.026245832443237305,38.101287210559306,36.88521247503531,-39.0,68.0,369.0,1766,1790.4852955157562,-1665.2375025463623,
117,3.172131061553955,0.027239322662353516,36.71163238512035,36.883721930040416,-51.0,39.0,300.0,1790,1790.242647757878,-837.0727489163285,
118,3.1987040042877197,0.02657294273376465,37.63226414247903,36.88994037642316,-21.0,27.0,265.0,1743,1766.6213238789392,-862.998324261803,
119,3.224942922592163,0.02623891830444336,38.111327166663635,36.899877875776326,81.0,-34.0,137.0,1719,1742.8106619394696,-885.227125745877,
120,3.253138780593872,0.028195858001708984,35.46620216130287,36.88745180987747,63.0,10.0,3.0,1616,1679.4053309697347,-1566.9867060114063,
121,3.2876369953155518,0.03449821472167969,28.98700724277105,36.80454994648406,-48.0,29.0,-189.0,1490,1584.7026654848673,-2156.06677816549,
122,3.314448118209839,0.02681112289428711,37.297952940758,36.80854116548767,-49.0,11.0,-299.0,1452,1518.3513327424337,-2315.4178321746786,
123,3.3434250354766846,0.028976917266845703,34.51022725402755,36.78862205518642,76.0,0.0,-315.0,1429,1473.6756663712167,-1928.5926156852458,
124,3.3704049587249756,0.026979923248291016,37.06459765645712,36.79083122608187,134.0,-66.0,-359.0,1386,1429.8378331856084,-1776.7121324203517,
125,3.39790415763855,0.02749919891357422,36.3646956823305,36.78738251607178,91.0,-59.0,-516.0,1415,1422.4189165928042,-1023.2493883051341,
126,3.4242238998413086,0.02631974220275879,37.99429311641137,36.79665923885389,15.0,-8.0,-638.0,1350,1386.209458296402,-1199.5010802025542,
127,3.4528050422668457,0.02858114242553711,34.98810457298253,36.78168864020819,2.0,4.0,-695.0,1345,1365.604729148201,-960.2107491688989,
128,3.4800381660461426,0.027233123779296875,36.71998879394873,36.7812058065523,87.0,-28.0,-663.0,1345,1355.3023645741005,-669.2567304405212,
129,3.510068893432617,0.03003072738647461,33.299226726369106,36.75141540422771,151.0,-90.0,-664.0,1336,1345.6511822870502,-495.3168187972622,
130,3.542459011077881,0.03239011764526367,30.873614321256643,36.6976723212513,-4.0,-83.0,-778.0,1350,1347.8255911435251,-214.092479192866,
131,3.5694808959960938,0.02702188491821289,37.00704088655173,36.70001432055384,27.0,16.0,-765.0,1303,1325.4127955717627,-521.7618606495022,
132,3.5960397720336914,0.026558876037597656,37.6521957700456,36.70704674251954,151.0,-27.0,-639.0,1233,1279.2063977858813,-1130.767097956054,
133,3.625769853591919,0.02973008155822754,33.635965580567294,36.68186491987122,164.0,-89.0,-590.0,1261,1270.1031988929408,-718.4809912960304,
134,3.653714895248413,0.02794504165649414,35.784523504820406,36.6750017014914,23.0,-101.0,-628.0,1336,1303.0515994464704,230.28091137899378,
135,3.680410146713257,0.02669525146484375,37.459845670191484,36.68069443851523,0.0,-27.0,-591.0,1372,1337.5257997232352,760.8395666749379,
136,3.7080509662628174,0.027640819549560547,36.17837735263167,36.676950030454535,38.0,27.0,-464.0,1350,1343.7628998616176,493.2438645337438,
137,3.73500394821167,0.02695298194885254,37.10164618882078,36.680014773637915,78.0,-25.0,-345.0,1322,1332.8814499308087,44.76207958975161,
138,3.7624759674072266,0.02747201919555664,36.40067345911513,36.67797514068845,81.0,-86.0,-222.0,1313,1322.9407249654043,-158.5435019114027,
139,3.7908778190612793,0.028401851654052734,35.208972012826756,36.66696913867302,19.0,-64.0,-155.0,1275,1298.970362482702,-501.25766185108995,
140,3.8186240196228027,0.027746200561523438,36.04097064686877,36.66242062077349,0.0,3.0,-71.0,1261,1279.985181241351,-592.7510108480529,
141,3.845674991607666,0.02705097198486328,36.96724836946942,36.66456481832221,24.0,63.0,21.0,1378,1328.9925906206754,609.459031810848,
142,3.873936176300049,0.028261184692382812,35.38422082742795,36.65522443780231,45.0,11.0,197.0,1602,1465.4962953103377,2719.7681311559354,
