Index,Time,Difference,Hz,AveHz,0x6103 Linear-Acceleration-X,0x6103 Linear-Acceleration-Y,0x6103 Linear-Acceleration-Z,0x6103 Range,0x6103 Smoothed Range,0x6103 Velocity,
0,9.5367431640625e-07,9.5367431640625e-07,1048576.0,0.0,-8.0,-16.0,-13.0,1565,1590.5,-13369344.0,
1,0.025708675384521484,0.025707721710205078,38.89881846678909,38.89737549846981,-37.0,72.0,-11.0,1588,1589.25,-6684696.311761541,
2,0.05570673942565918,0.029998064041137695,33.33548453755732,35.90229872758944,-4.0,56.0,2.0,1583,1586.125,-3342400.2425753605,
3,0.08116459846496582,0.02545785903930664,39.280600872838974,36.9619274503641,0.0,17.0,8.0,1621,1603.5625,-1670857.6435488202,
4,0.10473275184631348,0.023568153381347656,42.43013798405698,38.19244629291957,51.0,11.0,24.0,1597,1600.28125,-835498.4337195401,
5,0.13610386848449707,0.031371116638183594,31.87645538835689,36.73664867629773,50.0,14.0,11.0,1621,1610.640625,-417584.1067822507,
6,0.16349577903747559,0.027391910552978516,36.50712855775089,36.69819511746975,0.0,-56.0,-33.0,1635,1622.8203125,-208569.73068244747,
7,0.19199585914611816,0.028500080108642578,35.08762067292409,36.45911964524537,-37.0,31.0,-50.0,1597,1609.91015625,-104511.35867388782,
8,0.2184147834777832,0.02641892433166504,37.8516546489906,36.62755731373718,-24.0,23.0,-26.0,1588,1598.955078125,-52463.01325386402,
9,0.2433946132659912,0.024979829788208008,40.0322983974879,36.976989257212715,0.0,-23.0,-25.0,1597,1597.9775390625,-26251.073194654608,
10,0.26740574836730957,0.02401113510131836,41.64734385860391,37.39635389686523,41.0,-13.0,6.0,1668,1632.98876953125,-12396.474220204873,
11,0.2994098663330078,0.03200411796569824,31.245979066562374,36.73893627728903,64.0,-44.0,29.0,1616,1624.494384765625,-6330.944794387459,
12,0.32515573501586914,0.025745868682861328,38.841183116329894,36.90539242500011,32.0,-51.0,13.0,1597,1610.7471923828125,-3432.4510055318474,
13,0.3513059616088867,0.026150226593017578,38.240586422567056,37.004780506608824,20.0,-22.0,-8.0,1583,1596.8735961914062,-1981.4927298405576,
14,0.38080573081970215,0.02949976921081543,33.89857028553879,36.76415260312481,-4.0,83.0,-18.0,1565,1580.9367980957031,-1260.8637001070954,
15,0.40839290618896484,0.027587175369262695,36.24872741100519,36.72933533536806,-27.0,61.0,-27.0,1560,1570.4683990478516,-820.1649218111465,
16,0.43659186363220215,0.028198957443237305,35.46230395265272,36.647499261412875,0.0,22.0,-16.0,1569,1569.7341995239258,-423.10066424524774,
17,0.46264171600341797,0.02604985237121582,38.38793348038184,36.7454974593653,13.0,-69.0,-6.0,1607,1588.367099761963,146.08893531955587,
18,0.48905086517333984,0.026409149169921875,37.86566517405749,36.805987437768984,-34.0,-16.0,-35.0,1560,1574.1835498809814,-195.49030772661524,
19,0.516751766204834,0.02770090103149414,36.09990876697709,36.768137513183916,-35.0,7.0,-17.0,1569,1571.5917749404907,-144.5265733114339,
20,0.5438389778137207,0.02708721160888672,36.91779037425624,36.77559133477654,-19.0,-14.0,-20.0,1555,1563.2958874702454,-225.39620395318553,
21,0.5706627368927002,0.026823759078979492,37.28038255397442,36.79931883120057,-15.0,-25.0,-21.0,1607,1585.1479437351227,294.6284065962071,
22,0.5983307361602783,0.027667999267578125,36.14283744657383,36.7689618306801,-6.0,-4.0,-16.0,1612,1598.5739718675613,389.9415794700324,
23,0.629436731338501,0.031105995178222656,32.14814360609498,36.540606632679925,3.0,0.0,20.0,1574,1586.2869859337807,-2.531104407608808,
24,0.65718674659729,0.027750015258789062,36.03601622104612,36.51930006845784,9.0,23.0,-4.0,1579,1582.6434929668903,-66.91403803186819,
25,0.6852469444274902,0.028060197830200195,35.63766749084483,36.48319806940108,15.0,34.0,-2.0,1574,1578.3217464834452,-110.46550109430748,
26,0.7129688262939453,0.027721881866455078,36.07258716480039,36.467232564920906,5.0,-8.0,-11.0,1569,1573.6608732417226,-139.29762868521556,
27,0.7417688369750977,0.028800010681152344,34.72220934468029,36.3994800726664,21.0,-27.0,-4.0,1569,1571.3304366208613,-110.10776844963533,
28,0.7694427967071533,0.027673959732055664,36.13505294082172,36.389969624547255,15.0,5.0,3.0,1588,1579.6652183104306,95.53500457657242,
29,0.7934756278991699,0.0240328311920166,41.60974593506017,36.54806648161492,-16.0,13.0,-29.0,1546,1562.8326091552153,-302.43279289805247,
30,0.8200199604034424,0.02654433250427246,37.67282525710693,36.58447531599142,-17.0,51.0,-33.0,1583,1572.9163045776077,38.72425134781159,
31,0.8475227355957031,0.027502775192260742,36.35996705821161,36.57718984755123,3.0,0.0,-25.0,1536,1554.4581522888038,-316.2067789142745,
32,0.8807628154754639,0.03324007987976074,30.08416356450699,36.33214236312347,10.0,-26.0,-23.0,1597,1575.729076144402,161.85558676285595,
33,0.9085237979888916,0.027760982513427734,36.02177983132654,36.32265888141709,13.0,-4.0,-16.0,1597,1586.364538072201,272.4819273652444,
34,0.9358038902282715,0.027280092239379883,36.656767551411015,36.33239865214318,13.0,43.0,-2.0,1593,1589.6822690361005,197.049610053514,
35,0.9625039100646973,0.02670001983642578,37.45315569525306,36.363488640422645,-9.0,33.0,0.0,1560,1574.8411345180502,-179.39885587260807,
36,0.9888968467712402,0.02639293670654297,37.88892502258356,36.404201426610285,-58.0,30.0,34.0,1579,1576.9205672590251,-50.3056923301527,
37,1.0167579650878906,0.02786111831665039,35.89231374830992,36.390174722458795,-106.0,-65.0,119.0,1621,1598.9602836295126,370.37536128157234,
38,1.0441868305206299,0.027428865432739258,36.45794254422183,36.39195485835926,79.0,177.0,535.0,1621,1609.9801418147563,386.0683589223303,
39,1.0749969482421875,0.030810117721557617,32.4568704682458,36.27917275837107,-60.0,-141.0,677.0,1569,1589.4900709073781,-139.48760920180683,
40,1.101794719696045,0.026797771453857422,37.31653588142138,36.30440342919315,-24.0,-55.0,612.0,1490,1539.745035453689,-997.9000048159868,
41,1.1341397762298584,0.03234505653381348,30.91662551136992,36.150746900257246,18.0,71.0,612.0,1621,1580.3725177268445,129.08232504649033,
42,1.1597998142242432,0.025660037994384766,38.97110363666772,36.2131459971759,70.0,298.0,573.0,1504,1542.1862588634222,-679.5391633082824,
43,1.1869299411773682,0.027130126953125,36.85939257592801,36.22791751073901,75.0,356.0,558.0,1433,1487.593129431711,-1345.9043764900853,
44,1.2148687839508057,0.0279388427734375,35.79246313489896,36.21790318532188,-55.0,345.0,312.0,1443,1465.2965647158555,-1071.9766735586168,
45,1.241910696029663,0.027041912078857422,36.979633580786796,36.2344894394284,-114.0,75.0,140.0,1485,1475.1482823579277,-353.8318825067085,
46,1.2694668769836426,0.027556180953979492,36.28949895742306,36.23568352511865,-81.0,-73.0,124.0,1490,1482.5741411789638,-42.17559328137273,
47,1.2968418598175049,0.027374982833862305,36.52970327210653,36.241889976171784,49.0,-213.0,100.0,1588,1535.287070589482,941.7060383441773,
48,1.3230767250061035,0.026234865188598633,38.11721511855103,36.27907519858954,96.0,-68.0,45.0,1419,1477.143535294741,-637.2818021192652,
49,1.3506498336791992,0.027573108673095703,36.26722006052746,36.27883317952437,7.0,423.0,-190.0,1364,1420.5717676473705,-1344.4912742997394,
50,1.3811657428741455,0.03051590919494629,32.76979209800536,36.20130332508261,-76.0,308.0,-297.0,1415,1417.7858838236853,-717.8920540055507,
51,1.4087817668914795,0.027616024017333984,36.21086074419408,36.20149067696487,-61.0,-92.0,-443.0,1518,1467.8929419118426,548.2638243629797,
52,1.437345027923584,0.028563261032104492,35.01000809662529,36.17781325275824,151.0,-348.0,-347.0,1405,1436.4464709559213,-276.3386892070588,
53,1.4652717113494873,0.02792668342590332,35.808047262513554,36.170765865115904,134.0,228.0,-457.0,1247,1341.7232354779608,-1834.0963910300352,
54,1.492292881011963,0.027021169662475586,37.0080204702872,36.18592615906684,-7.0,320.0,-596.0,1284,1312.8616177389804,-1451.1038655599127,
55,1.518507719039917,0.0262148380279541,38.14633525233509,36.21976978475551,-96.0,130.0,-765.0,1405,1358.9308088694902,153.13347205420826,
56,1.5436077117919922,0.025099992752075195,39.84064895466246,36.27864746476872,47.0,-182.0,-762.0,1504,1431.465404434745,1521.4794155189727,
57,1.5718178749084473,0.028210163116455078,35.44821757576782,36.26374334451442,212.0,-374.0,-616.0,1447,1439.2327022173727,898.4081386466668,
58,1.598583698272705,0.026765823364257812,37.36107746027221,36.28211651518148,100.0,-115.0,-691.0,1410,1424.6163511086863,176.16275634425057,
59,1.6311678886413574,0.032584190368652344,30.689729856294086,36.17040306570935,-102.0,284.0,-825.0,1386,1405.308175554343,-208.199967718223,
60,1.655911922454834,0.024744033813476562,40.41378247128652,36.23381122291336,3.0,35.0,-778.0,1452,1428.6540877771715,367.64832522445806,
61,1.6841847896575928,0.02827286720275879,35.369599865075685,36.219303472276195,251.0,-380.0,-539.0,1341,1384.8270438885856,-591.2483401919676,
62,1.7125577926635742,0.028373003005981445,35.24477122809966,36.20315779450001,11.0,-181.0,-640.0,1382,1383.4135219442928,-320.53379887223343,
63,1.7397468090057373,0.027189016342163086,36.779557870553056,36.21216585878057,-123.0,222.0,-672.0,1415,1399.2067609721464,130.16727495809232,
64,1.7666409015655518,0.026894092559814453,37.182886828247725,36.22694342878898,-15.0,58.0,-519.0,1363,1381.103380486073,-271.48433643214014,
65,1.7962467670440674,0.029605865478515625,33.777090581110684,36.18656478194533,212.0,-145.0,-298.0,1378,1379.5516902430365,-161.9479591625056,
66,1.8212049007415771,0.024958133697509766,40.06709845054546,36.239744343497776,233.0,-285.0,-174.0,1391,1385.2758451215182,33.70115894989364,
67,1.848484754562378,0.02727985382080078,36.65708792169201,36.24590348101735,-15.0,-135.0,-269.0,1508,1446.637922560759,1141.5281133489111,
68,1.8798577785491943,0.031373023986816406,31.874517433200594,36.17294923900037,-121.0,59.0,-160.0,1588,1517.3189612803794,1697.226057107088,
69,1.9062316417694092,0.026373863220214844,37.91632616163442,36.1970699090655,-104.0,163.0,-52.0,1621,1569.1594806401897,1831.4140487710893,
70,1.9332799911499023,0.027048349380493164,36.97083270897055,36.207895555968825,124.0,76.0,161.0,1532,1550.579740320095,572.2527888103757,
71,1.9567828178405762,0.023502826690673828,42.54807360668709,36.28404713730706,230.0,-125.0,306.0,1536,1543.2898701600475,131.04142832874174,
72,1.9815149307250977,0.024732112884521484,40.43326199703087,36.335835215560536,134.0,-258.0,324.0,1565,1554.1449350800237,284.9735561164604,
73,2.0076518058776855,0.02613687515258789,38.26012077426888,36.36088677642315,12.0,-183.0,355.0,1560,1557.072467540012,198.49065080310152,
74,2.0340778827667236,0.026426076889038086,37.84140961214013,36.380121246560265,-48.0,-64.0,442.0,1607,1582.036233770006,571.577377087008,
75,2.0628726482391357,0.02879476547241211,34.72853428718101,36.35706744379972,-48.0,33.0,510.0,1597,1589.518116885003,415.70610568943306,
76,2.09082293510437,0.027950286865234375,35.777808107001505,36.34932385903171,43.0,63.0,613.0,1466,1527.7590584425016,-896.9488180677392,
77,2.1198437213897705,0.02902078628540039,34.45806016989533,36.3234323469462,114.0,61.0,693.0,1429,1478.3795292212508,-1299.2358035673517,
78,2.146073818206787,0.0262300968170166,38.12414445040312,36.34544130694214,82.0,-9.0,710.0,1461,1469.6897646106254,-815.2628224114176,
79,2.1759250164031982,0.029851198196411133,33.49949283175592,36.306398154559076,107.0,-8.0,764.0,1461,1465.3448823053127,-480.40708802653165,
80,2.2029716968536377,0.027046680450439453,36.973114014209905,36.31458366635343,62.0,-60.0,712.0,1490,1477.6724411526563,-12.309424623406386,
81,2.2297558784484863,0.026784181594848633,37.335469686045165,36.32684671129182,19.0,-84.0,674.0,1443,1460.3362205763283,-329.78268121074757,
82,2.25744366645813,0.027687788009643555,36.11700579517958,36.324272990012574,-45.0,-90.0,605.0,1429,1444.6681102881641,-447.8339556439424,
83,2.286646604537964,0.029202938079833984,34.24312982708228,36.29769455204944,-72.0,-12.0,574.0,1378,1411.334055144082,-794.6481668029343,
84,2.312558650970459,0.025912046432495117,38.592088919150186,36.323403069042,-21.0,88.0,519.0,1355,1383.167027572041,-940.8362997256475,
85,2.3412327766418457,0.02867412567138672,34.87464662254299,36.30565950042781,30.0,85.0,443.0,1359,1371.0835137860204,-681.1222864858712,
86,2.371511697769165,0.030278921127319336,33.02627579744723,36.263789076350974,210.0,48.0,482.0,1341,1356.0417568930102,-588.9477490562892,
87,2.3983616828918457,0.026849985122680664,37.243968494987435,36.274762318208396,192.0,-89.0,357.0,1308,1332.020878446505,-741.7902945699238,
88,2.425654649734497,0.027292966842651367,36.63947586809347,36.27886600000216,5.0,-165.0,158.0,1289,1310.5104392232524,-764.9607567011905,
89,2.4561877250671387,0.0305330753326416,32.751368445711165,36.23501538245299,-112.0,-38.0,-8.0,1327,1318.7552196116262,-247.46645822379355,
90,2.4823129177093506,0.026125192642211914,38.277229710614456,36.256508741472835,-78.0,48.0,-64.0,1336,1327.377609805813,41.28737594682383,
91,2.508906841278076,0.026593923568725586,37.602574791784335,36.270776779277774,-2.0,193.0,-188.0,1256,1291.6888049029067,-650.3517898220575,
92,2.5365397930145264,0.027632951736450195,36.188678268522274,36.26988240175152,139.0,189.0,-130.0,1247,1269.3444024514533,-729.4830906200414,
93,2.5653738975524902,0.028834104537963867,34.681153308692814,36.25202551905872,121.0,-149.0,-286.0,1252,1260.6722012257267,-515.1225154266508,
94,2.593470811843872,0.028096914291381836,35.59109693076616,36.2448652094793,-57.0,-217.0,-498.0,1247,1253.8361006128634,-379.2134174837678,
95,2.6201508045196533,0.02667999267578125,37.481269659708325,36.25745504271314,-71.0,-92.0,-595.0,1266,1259.9180503064317,-75.62711048117741,
96,2.648071765899658,0.027920961380004883,35.81538566634503,36.25279391451269,141.0,228.0,-543.0,1027,1143.4590251532159,-2123.32600533509,
97,2.6751458644866943,0.027074098587036133,36.93567107267716,36.25970504550873,206.0,163.0,-524.0,1004,1073.729512576608,-2349.416172961393,
98,2.7029576301574707,0.027811765670776367,35.95600552074136,36.256580164850995,-76.0,-228.0,-766.0,1022,1047.8647562883039,-1639.704746428142,
99,2.7296528816223145,0.02669525146484375,37.459845670191484,36.268347769245054,-131.0,-197.0,-816.0,1032,1039.932378144152,-968.4252037528365,
100,2.7594988346099854,0.0298459529876709,33.505380123499194,36.23846429858469,99.0,65.0,-684.0,1065,1052.4661890720758,-274.2375521083386,
101,2.7869997024536133,0.02750086784362793,36.362488838027865,36.239688117326246,136.0,191.0,-655.0,1126,1089.233094536038,531.349318716904,
102,2.8135159015655518,0.026516199111938477,37.71279570569248,36.253571534194336,91.0,-38.0,-685.0,1177,1133.116547268019,1093.1585032292608,
103,2.839970827102661,0.026454925537109375,37.80014419610671,36.26797818380431,28.0,-126.0,-713.0,1242,1187.5582736340095,1575.5318050743422,
104,2.864834785461426,0.02486395835876465,40.21885757572852,36.302267945007934,0.0,-188.0,-603.0,1322,1254.7791368170047,2139.5390637743776,
105,2.8925747871398926,0.027740001678466797,36.04902449505801,36.29983932198394,45.0,134.0,-524.0,1331,1292.8895684085023,1756.691472866755,
106,2.9210989475250244,0.028524160385131836,35.05799948177434,36.28771291359754,65.0,221.0,-454.0,1359,1325.9447842042512,1457.7706055520284,
107,2.948870897293091,0.027771949768066406,36.00755468562206,36.28507443246173,-96.0,-90.0,-500.0,1177,1251.4723921021255,-611.8990628171755,
108,2.974599838256836,0.025728940963745117,38.86673771023491,36.3074046501965,-88.0,-278.0,-343.0,1294,1272.7361960510627,107.27781399401323,
109,3.0022106170654297,0.02761077880859375,36.21773970710141,36.30658001820812,104.0,-85.0,-100.0,1405,1338.8680980255313,1251.2129130204298,
110,3.0316076278686523,0.029397010803222656,34.01706407137064,36.284378950891686,28.0,158.0,-83.0,1804,1571.4340490127656,4581.211884286213,
111,3.058957815170288,0.027350187301635742,36.56282090397943,36.286868504533714,-20.0,111.0,0.0,1743,1657.2170245063828,3858.839726934897,
112,3.0858607292175293,0.02690291404724121,37.17069452937371,36.29457380871477,-109.0,25.0,2.0,1687,1672.1085122531913,2206.183334529713,
113,3.1118316650390625,0.025970935821533203,38.50458092352887,36.31301823602387,-61.0,-57.0,215.0,1508,1590.0542561265956,-476.6407053083767,
114,3.1413228511810303,0.029491186141967773,33.90843607259792,36.290443676344786,-56.0,-146.0,325.0,1565,1577.5271280632978,-450.7080132079792,
115,3.167665719985962,0.02634286880493164,37.96093764141551,36.30433579983612,-41.0,-31.0,436.0,1654,1615.763564031649,500.3914741082868,
116,3.1936397552490234,0.025974035263061523,38.49998623133198,36.322193136951014,-50.0,10.0,463.0,1654,1634.8817820158245,618.2213016333244,
117,3.2194807529449463,0.02584099769592285,38.69819624486783,36.34126400444448,-50.0,50.0,542.0,1607,1620.9408910079123,39.366982790414056,
118,3.2479076385498047,0.0284268856048584,35.177965462002334,36.33108238653214,-164.0,30.0,545.0,1588,1604.4704455039562,-270.01489014577385,
119,3.275474786758423,0.027567148208618164,36.275061621621624,36.33061090290622,-138.0,30.0,634.0,1579,1591.7352227519782,-365.99294011942624,
120,3.3011767864227295,0.02570199966430664,38.907478525444795,36.35067364266674,-104.0,-16.0,661.0,1490,1540.867611375989,-1172.5617186856969,
121,3.3277037143707275,0.026526927947998047,37.69754273696321,36.36141026542119,-43.0,-37.0,702.0,1724,1632.4338056879947,1139.6294023261048,
122,3.3555498123168945,0.027846097946166992,35.911674301125906,36.357678122430585,27.0,-16.0,731.0,1883,1757.7169028439973,2819.3775914143926,
123,3.386565685272217,0.031015872955322266,32.2415558459528,36.319980603037706,38.0,-6.0,721.0,2122,1939.8584514219988,4345.952250880176,
124,3.4115068912506104,0.024941205978393555,40.09429218724608,36.34757423999907,24.0,-12.0,713.0,1522,1730.9292257109994,-2015.4585856158606,
125,3.439931869506836,0.028424978256225586,35.18032594381957,36.33792898866935,-64.0,-21.0,611.0,1513,1621.9646128554996,-2924.434591107228,
126,3.4664337635040283,0.026501893997192383,37.73315220813804,36.348595875847195,-110.0,54.0,500.0,1541,1581.4823064277498,-2225.979810640998,
127,3.4940478801727295,0.027614116668701172,36.21336188288926,36.347527096200444,-161.0,-18.0,358.0,1475,1528.241153213875,-2077.0104795187012,
128,3.5199618339538574,0.02591395378112793,38.589248419832366,36.364030645247595,-122.0,-2.0,340.0,1607,1567.6205766069374,-278.69406378702615,
129,3.5454037189483643,0.025441884994506836,39.30526374975401,36.38513699034081,9.0,5.0,315.0,1892,1729.8102883034687,3048.1076659708488,
130,3.570128917694092,0.02472519874572754,40.44456872860518,36.4132508929021,94.0,-50.0,302.0,1677,1703.4051441517345,990.0814992686529,
131,3.59521484375,0.025085926055908203,39.8629892223764,36.437321743854405,119.0,-35.0,208.0,1701,1702.2025720758672,471.0716907846132,
132,3.6280219554901123,0.032807111740112305,30.481195904159065,36.38346228865862,-23.0,17.0,-28.0,1508,1605.1012860379337,-1244.3458157417117,
133,3.6561379432678223,0.02811598777770996,35.56695243667693,36.37718326380372,-122.0,4.0,-226.0,1513,1559.0506430189669,-1441.1134228378473,
134,3.68491792678833,0.028779983520507812,34.74637152892836,36.36444628138315,42.0,72.0,-215.0,1532,1545.5253215094835,-955.5346345272804,
135,3.713833808898926,0.028915882110595703,34.58307085964941,36.35057650574426,160.0,-61.0,-243.0,1391,1468.2626607547418,-1813.7573531067844,
136,3.7409608364105225,0.02712702751159668,36.86360400425386,36.35429664922473,140.0,-98.0,-322.0,1238,1353.131330377371,-3028.956562310554,
137,3.767448663711548,0.02648782730102539,37.753190876523426,36.36413186451565,-18.0,-122.0,-553.0,1214,1283.5656651886854,-2827.6411993156585,
138,3.7949037551879883,0.02745509147644043,36.42311666883765,36.36455860345367,-38.0,24.0,-651.0,1186,1234.7828325943428,-2302.2320011678876,
139,3.823683738708496,0.028779983520507812,34.74637152892836,36.352378883445326,110.0,61.0,-593.0,1186,1210.3914162971714,-1574.872606973082,
140,3.8522727489471436,0.02858901023864746,34.97847570281292,36.34218268637991,218.0,-45.0,-560.0,1162,1186.1957081485857,-1210.6007982803699,
141,3.8805019855499268,0.028229236602783203,35.4242664819851,36.33550518078607,39.0,-148.0,-728.0,1088,1137.0978540742929,-1474.928132350869,
