Index,Time,Difference,Hz,AveHz,0x6030 Acceleration-X,0x6030 Acceleration-Y,0x6030 Acceleration-Z,0x6030 Range,0x6030 Smoothed Range,0x6030 Velocity,
0,1.1920928955078125e-06,1.1920928955078125e-06,838860.8,0.0,4.0,6.0,1018.0,1374,1374.0,0.0,
1,0.028789997100830078,0.02878880500793457,34.73572451945772,34.734286234824516,7.0,8.0,1015.0,1377,1374.6000000000001,4.168286942335874,
2,0.0592350959777832,0.030445098876953125,32.84600927202105,33.763767357617226,5.0,7.0,1004.0,1355,1370.68,-22.41664171539628,
3,0.08724713325500488,0.02801203727722168,35.69893864210876,34.385083934295416,7.0,7.0,1017.0,1372,1370.9440000000002,-16.048409412012802,
4,0.11649727821350098,0.029250144958496094,34.187864758240686,34.33556612944487,6.0,7.0,1010.0,1386,1373.9552000000003,7.750572142393615,
5,0.14392709732055664,0.027429819107055664,36.456674981964206,34.73980989739495,6.0,7.0,1015.0,1400,1379.1641600000003,44.18073005672486,
6,0.17403912544250488,0.030112028121948242,33.209320738881544,34.475006609833514,6.0,7.0,1015.0,1405,1384.3313280000002,69.66421193011655,
7,0.2020721435546875,0.028033018112182617,35.67222037948954,34.641093407838106,4.0,6.0,1006.0,1410,1389.4650624000003,92.3577105214072,
8,0.22876310348510742,0.026690959930419922,37.46586869138008,34.97067437066311,5.0,5.0,1015.0,1415,1394.5720499200004,112.1537131836937,
9,0.25646209716796875,0.027698993682861328,36.10239460138752,35.09290495314592,1.0,7.0,1006.0,1452,1406.0576399360004,172.6544311444332,
10,0.28384923934936523,0.027387142181396484,36.51348480891443,35.229969341900805,4.0,6.0,1018.0,1424,1409.6461119488004,164.3290685808634,
11,0.3117492198944092,0.027899980545043945,35.84231890002649,35.28477153439469,6.0,7.0,1011.0,1513,1430.3168895590402,279.6409754682395,
12,0.33934736251831055,0.027598142623901367,36.23432249146905,35.36199577609065,6.0,7.0,1016.0,1485,1441.2535116472322,302.9689987167665,
13,0.36791133880615234,0.028563976287841797,35.009131429143785,35.334600021255476,6.0,5.0,1011.0,1583,1469.602809317786,440.87205658788093,
14,0.3948853015899658,0.026973962783813477,37.072787858967445,35.45333276176756,6.0,7.0,1012.0,1593,1494.282247454229,535.684760172477,
15,0.42186617851257324,0.026980876922607422,37.0632875598678,35.556299044610284,4.0,5.0,1014.0,1532,1501.8257979633834,484.4655644866165,
16,0.44960618019104004,0.027740001678466797,36.04902449505801,35.586699438165006,4.0,5.0,1016.0,1475,1496.4606383707066,348.8906976740335,
17,0.4785573482513428,0.028951168060302734,34.540920695050644,35.52343321467805,8.0,6.0,1016.0,,1496.4606383707066,348.8906976740335,
18,0.5040943622589111,0.02553701400756836,39.15884604612081,35.70760029796744,5.0,7.0,1007.0,1382,1473.5685106965655,99.82669748725945,
19,0.5284202098846436,0.024325847625732422,41.10853670489072,35.956232643236305,3.0,7.0,1012.0,1382,1455.2548085572525,-70.70854132946852,
20,0.5544581413269043,0.026037931442260742,38.40550860261329,36.07125319169613,5.0,7.0,1005.0,1378,1439.8038468458021,-175.24724164912635,
21,0.5787911415100098,0.02433300018310547,41.096453066823436,36.28251798258875,5.0,7.0,1013.0,1374,1426.6430774766418,-248.36998145989816,
22,0.6050302982330322,0.02623915672302246,38.110980873199765,36.36181537395756,5.0,6.0,1006.0,1364,1414.1144619813135,-294.1915502699445,
23,0.6335091590881348,0.02847886085510254,35.11376403318571,36.30571029644767,3.0,6.0,1012.0,1378,1406.891569585051,-286.0778280638463,
24,0.6620123386383057,0.0285031795501709,35.08380523793193,36.25310073429393,4.0,7.0,1007.0,1378,1401.113255668041,-269.40731046467994,
25,0.6900732517242432,0.0280609130859375,35.63675910821098,36.228038019926224,5.0,7.0,1014.0,1359,1392.6906045344326,-275.5570462719236,
26,0.716846227645874,0.02677297592163086,37.35109622954031,36.26998231599001,4.0,6.0,1004.0,1345,1383.1524836275462,-291.69749138596,
27,0.7448391914367676,0.027992963790893555,35.72326272666105,36.249435194082615,5.0,5.0,1016.0,1368,1380.121986902037,-255.00983925229852,
28,0.7713632583618164,0.026524066925048828,37.70160898876404,36.2993695855634,6.0,8.0,1004.0,1386,1381.2975895216296,-195.14344934382936,
29,0.7993221282958984,0.02795886993408203,35.76682470921308,36.28074211060073,4.0,7.0,1017.0,1410,1387.0380716173038,-115.05099610259225,
30,0.8269062042236328,0.027584075927734375,36.25280044253907,36.279810027748496,5.0,5.0,1009.0,1391,1387.8304572938432,-86.2955569210518,
31,0.8547723293304443,0.027866125106811523,35.885864868795935,36.26696716338812,6.0,8.0,1016.0,1372,1384.6643658350747,-91.76003158716456,
32,0.8825693130493164,0.02779698371887207,35.97512629836434,36.257775482175525,5.0,7.0,1015.0,1368,1381.33149266806,-97.3881318936881,
33,0.910999059677124,0.028429746627807617,35.17442533314325,36.22396713745879,3.0,6.0,1010.0,1424,1389.865194134448,-17.876896505990267,
34,0.9348390102386475,0.023839950561523438,41.94639571165693,36.36989858961964,5.0,7.0,1014.0,1433,1398.4921553075587,58.072468226487736,
35,0.9625122547149658,0.02767324447631836,36.13598690445421,36.36317338148047,4.0,6.0,1015.0,1429,1404.593724246047,90.55521763275775,
36,0.9892940521240234,0.026781797409057617,37.33879338739974,36.389585000241,4.0,7.0,1013.0,1508,1425.2749793968378,226.8867967197009,
37,1.016638994216919,0.027344942092895508,36.56983425318023,36.394433235860475,6.0,6.0,1004.0,1546,1449.4199835174704,358.10519712253847,
38,1.044140100479126,0.02750110626220703,36.362173596421265,36.393583564660425,5.0,6.0,1012.0,1457,1450.9359868139766,297.5091927060914,
39,1.072026252746582,0.027886152267456055,35.86009250788711,36.37970609402536,6.0,7.0,1009.0,1415,1443.7487894511812,186.4606417044164,
40,1.0987012386322021,0.026674985885620117,37.48830474692313,36.40662137579539,7.0,6.0,1015.0,1386,1432.199031560945,62.57234465506258,
41,1.128326177597046,0.02962493896484375,33.75534380633531,36.3370103557432,7.0,7.0,1007.0,1433,1432.359225248756,51.13935432558299,
42,1.1581661701202393,0.02983999252319336,33.51207274005657,36.264226225533434,5.0,4.0,1016.0,1419,1429.6873801990048,23.003670328981574,
43,1.1865532398223877,0.028387069702148438,35.22730632265,36.23941898000006,8.0,6.0,1012.0,1480,1439.7499041592039,89.29805904817295,
44,1.213421106338501,0.02686786651611328,37.21918148581975,36.26111312071209,4.0,6.0,1002.0,1536,1458.9999233273631,214.73243864358415,
45,1.2416713237762451,0.02825021743774414,35.39795763355558,36.24147480763533,4.0,7.0,1016.0,1461,1459.3999386618907,174.6178960877431,
46,1.2701523303985596,0.028481006622314453,35.11111855212711,36.216128490325026,7.0,7.0,1007.0,1386,1444.7199509295126,36.60815894713471,
47,1.2975900173187256,0.027437686920166016,36.446220955492606,36.22099382139085,5.0,7.0,1013.0,1892,1534.1759607436102,681.3532270539707,
48,1.3256630897521973,0.02807307243347168,35.62132368552914,36.208294830757126,5.0,6.0,1010.0,1536,1534.5407685948883,547.6815693538565,
49,1.354217290878296,0.028554201126098633,35.02111635285768,36.183262708320896,6.0,6.0,1009.0,1153,1458.2326148759107,-96.33409052972735,
50,1.3816242218017578,0.027406930923461914,36.487120823293,36.18929026504447,4.0,7.0,1014.0,1424,1451.3860919007286,-127.02925462676602,
51,1.4106800556182861,0.02905583381652832,34.41649640187414,36.152775958576406,5.0,6.0,1004.0,1499,1460.9088735205828,-36.075247830303866,
52,1.4392483234405518,0.028568267822265625,35.00387234610763,36.1299708695807,7.0,6.0,1016.0,1261,1420.9270988164662,-308.7635858469893,
53,1.467919111251831,0.028670787811279297,34.87870673740582,36.10553169704424,6.0,3.0,1007.0,1055,1347.7416790531731,-757.5334273531605,
54,1.4966070652008057,0.02868795394897461,34.857836211625084,36.08161504486457,5.0,7.0,1014.0,1649,1407.9933432425385,-185.97821352438177,
55,1.5257842540740967,0.029177188873291016,34.273349785092094,36.047036042704526,5.0,5.0,1009.0,1299,1386.1946745940309,-298.2052499074298,
56,1.5537652969360352,0.027981042861938477,35.738482119273016,36.041479437357644,6.0,6.0,1012.0,1247,1358.3557396752249,-437.5484554890145,
57,1.5816330909729004,0.027867794036865234,35.883715757233546,36.03869969926966,4.0,4.0,1016.0,1079,1302.48459174018,-751.0116426975115,
58,1.6101760864257812,0.02854299545288086,35.0348652667101,36.020905097868265,7.0,6.0,1015.0,957,1233.387673392144,-1084.9695590916701,
59,1.6378521919250488,0.027676105499267578,36.1322513395703,36.02278660484886,6.0,7.0,1015.0,905,1167.7101387137154,-1342.5910853462017,
60,1.6653430461883545,0.027490854263305664,36.37573392307359,36.028612925924364,7.0,6.0,1005.0,892,1112.5681109709724,-1475.239214106714,
61,1.6931383609771729,0.02779531478881836,35.977286373539656,36.027770326339216,6.0,6.0,1016.0,864,1062.854488776778,-1537.9036157546689,
62,1.7204711437225342,0.027332782745361328,36.586102824444794,36.036640443647535,4.0,4.0,1005.0,747,999.6835910214224,-1692.5582847617206,
63,1.747420310974121,0.026949167251586914,37.106897985544045,36.053146231818644,6.0,6.0,1014.0,593,918.346872817138,-1957.677288786442,
64,1.7763042449951172,0.028883934020996094,34.62132267969756,36.02986379181677,4.0,7.0,1014.0,770,888.6774982537104,-1771.5804291222014,
65,1.8037559986114502,0.027451753616333008,36.42754535743132,36.03591619378545,6.0,8.0,1018.0,822,875.3419986029684,-1514.420246976044,
66,1.830611228942871,0.0268552303314209,37.236694217810886,36.05353171471216,5.0,7.0,1016.0,640,828.2735988823747,-1562.0705191243237,
67,1.8579189777374268,0.027307748794555664,36.61964256091918,36.06185242888933,6.0,6.0,1010.0,518,766.2188791058999,-1704.1407467859613,
68,1.8858942985534668,0.02797532081604004,35.745792034908,36.0571639949057,6.0,6.0,1010.0,433,699.57510328472,-1839.7595076137547,
69,1.911792278289795,0.025897979736328125,38.6130505229047,36.09178715886663,6.0,6.0,1006.0,461,651.860082627776,-1840.2921067566074,
70,1.9384040832519531,0.026611804962158203,37.577308319446686,36.112181461444756,5.0,7.0,1013.0,344,590.2880661022208,-1934.975815171457,
71,1.9658551216125488,0.027451038360595703,36.42849450224947,36.11659843059046,6.0,6.0,1004.0,236,519.4304528817767,-2064.2278868658595,
72,1.9944581985473633,0.028603076934814453,34.96127365174627,36.10002959823386,5.0,7.0,1014.0,218,459.1443623054214,-2072.9180114994715,
73,2.02313232421875,0.02867412567138672,34.87464662254299,36.08266208103297,6.0,6.0,1007.0,91,385.51548984433714,-2171.8905908588977,
74,2.047880172729492,0.024747848510742188,40.40755298651253,36.13492673322287,4.0,7.0,1014.0,91,326.6123918754697,-2213.538483136468,
75,2.0764122009277344,0.028532028198242188,35.04833210776121,36.119995811279786,5.0,7.0,1007.0,6,262.4899135003758,-2220.30797004178,
76,2.1045081615448,0.02809596061706543,35.59230501599586,36.11295094442053,7.0,6.0,1017.0,0,209.99193080030065,-2149.9512186305337,
77,2.1320791244506836,0.02757096290588379,36.2700426319385,36.11498237422992,3.0,8.0,1016.0,0,167.99354464024054,-2024.6176262040262,
78,2.1595840454101562,0.027504920959472656,36.35713047397802,36.118066423845036,6.0,6.0,1003.0,0,134.39483571219245,-1864.004629814072,
79,2.1876721382141113,0.028088092803955078,35.602274849333675,36.11144404137771,7.0,7.0,1015.0,0,107.51586856975396,-1682.5941790255183,
80,2.215494155883789,0.027822017669677734,35.942756268531376,36.10932567235185,6.0,8.0,1001.0,0,86.01269485580318,-1500.6520095804995,
81,2.2421181201934814,0.026623964309692383,37.5601465044014,36.12655340076828,3.0,7.0,1016.0,0,68.81015588464254,-1329.7475844652931,
82,2.2710931301116943,0.02897500991821289,34.51249897144738,36.10596100740579,4.0,7.0,1013.0,0,55.04812470771404,-1158.7904849399888,
83,2.2981181144714355,0.02702498435974121,37.00279662287937,36.116507449004594,5.0,7.0,1005.0,0,44.038499766171235,-1008.5097704732087,
84,2.339942216873169,0.0418241024017334,23.90965836862897,35.89832235782642,6.0,7.0,1012.0,,44.038499766171235,-1008.5097704732087,
85,2.3643200397491455,0.024377822875976562,41.02089038416399,35.95113968116537,6.0,6.0,1011.0,,44.038499766171235,-1008.5097704732087,
86,2.38409423828125,0.019774198532104492,50.57094973414196,36.07239958014388,4.0,7.0,1007.0,,44.038499766171235,-1008.5097704732087,
87,2.4070730209350586,0.022978782653808594,43.51840630836273,36.143481831807385,4.0,6.0,1012.0,,44.038499766171235,-1008.5097704732087,
88,2.4303791522979736,0.02330613136291504,42.90716397450718,36.20834219088581,6.0,7.0,1011.0,,44.038499766171235,-1008.5097704732087,
89,2.4540772438049316,0.023698091506958008,42.197490869945774,36.26617712407849,5.0,6.0,1016.0,,44.038499766171235,-1008.5097704732087,
90,2.480441093444824,0.026363849639892578,37.93072763117438,36.283869122248916,5.0,6.0,1009.0,,44.038499766171235,-1008.5097704732087,
91,2.507073163986206,0.026632070541381836,37.54871400051923,36.29730528299041,6.0,6.0,1009.0,,44.038499766171235,-1008.5097704732087,
92,2.5309534072875977,0.0238802433013916,41.875620251395254,36.349938222922745,4.0,6.0,1007.0,,44.038499766171235,-1008.5097704732087,
93,2.5533812046051025,0.022427797317504883,44.58752617759304,36.42229363648154,1.0,7.0,1011.0,,44.038499766171235,-1008.5097704732087,
94,2.577775239944458,0.02439403533935547,40.99362758512842,36.465553141873364,8.0,7.0,1010.0,,44.038499766171235,-1008.5097704732087,
95,2.6015710830688477,0.02379584312438965,42.02414660294368,36.51639604170905,3.0,6.0,1013.0,,44.038499766171235,-1008.5097704732087,
96,2.6246089935302734,0.02303791046142578,43.406714409901895,36.57687687447631,4.0,7.0,1009.0,,44.038499766171235,-1008.5097704732087,
97,2.6492443084716797,0.02463531494140625,40.592133787550324,36.61421473656321,5.0,7.0,1007.0,0,35.230799812936986,-878.3124833510242,
98,2.6777122020721436,0.028467893600463867,35.12729160908855,36.598406626433885,3.0,7.0,1007.0,0,28.18463985034959,-752.1524898268378,
99,2.7045140266418457,0.02680182456970215,37.31089267446515,36.60546738702879,4.0,7.0,1014.0,91,40.747711880279674,-507.974105427411,
100,2.7308900356292725,0.026376008987426758,37.91324155510761,36.61809838379568,8.0,7.0,1014.0,35,39.59816950422374,-415.095859898177,
101,2.755720376968384,0.024830341339111328,40.27330862443109,36.651033553379555,6.0,6.0,1014.0,44,40.478535603378994,-324.9856367957885,
102,2.7803761959075928,0.024655818939208984,40.55837700891562,36.685683092141545,5.0,6.0,1010.0,119,56.1828284827032,-132.60038318501876,
103,2.8086631298065186,0.02828693389892578,35.352011058292035,36.67225125965726,4.0,6.0,1003.0,236,92.14626278616257,148.1956388899959,
104,2.8372721672058105,0.028609037399291992,34.9539897495729,36.65492553096195,5.0,7.0,1010.0,354,144.51701022893005,484.66982497038987,
105,2.8646609783172607,0.027388811111450195,36.51125986925146,36.65355195422754,5.0,7.0,1003.0,307,177.01360818314404,625.0342065308905,
106,2.8931660652160645,0.02850508689880371,35.08145769034535,36.63806280407337,6.0,7.0,1014.0,0,141.61088654651525,251.63154898101897,
107,2.9210450649261475,0.027878999710083008,35.869292671871925,36.630725518336114,7.0,6.0,1009.0,0,113.2887092372122,-1.8740542175930557,
108,2.9479920864105225,0.026947021484375,37.10985277463194,36.63510512726677,3.0,8.0,1014.0,0,90.63096738976976,-169.66433620691564,
109,2.976985216140747,0.02899312973022461,34.49092972386231,36.61422280803381,5.0,7.0,1014.0,138,100.10477391181581,-70.37938997166079,
110,3.0050711631774902,0.028085947036743164,35.60499486422017,36.6047903783046,4.0,6.0,1008.0,0,80.08381912945265,-198.87271041789356,
111,3.0315332412719727,0.026462078094482422,37.789927020452296,36.61513536741776,3.0,7.0,1014.0,0,64.06705530356213,-280.1526355511595,
112,3.059659004211426,0.028125762939453125,35.55459107554591,36.605386366859555,4.0,7.0,1005.0,0,51.2536442428497,-315.2372265502291,
113,3.0881052017211914,0.028446197509765625,35.15408341155961,36.59201763496209,7.0,5.0,1014.0,0,41.00291539427977,-324.2607766345649,
114,3.1149723529815674,0.026867151260375977,37.22017233270328,36.59743557302596,5.0,8.0,1006.0,0,32.80233231542382,-320.4540443923857,
115,3.143444061279297,0.028471708297729492,35.122585183262295,36.584077132646065,5.0,8.0,1017.0,0,26.241865852339057,-302.44734395223463,
116,3.170692205429077,0.027248144149780273,36.69974712784481,36.58507117195949,4.0,8.0,1007.0,0,20.993492681871246,-280.4806687995345,
117,3.197587251663208,0.02689504623413086,37.181568356293106,36.59008833586732,5.0,5.0,1011.0,0,16.794794145496997,-255.60737436716101,
118,3.2262320518493652,0.028644800186157227,34.91034999375754,36.57517441510729,4.0,7.0,1015.0,0,13.435835316397599,-227.93838516142523,
119,3.254765033721924,0.028532981872558594,35.0471606671346,36.56177904305425,5.0,5.0,1014.0,0,10.74866825311808,-201.1862232903781,
120,3.2813429832458496,0.02657794952392578,37.62517492554451,36.57039224875481,4.0,7.0,1014.0,0,8.598934602494465,-177.1257995619111,
121,3.310750961303711,0.029407978057861328,34.004377928753264,36.54759944624542,4.0,7.0,1002.0,0,6.879147681995573,-153.3966965298431,
122,3.338386297225952,0.02763533592224121,36.185556159467176,36.54460243303073,5.0,7.0,1016.0,0,5.503318145596459,-132.67438861491925,
123,3.3662071228027344,0.027820825576782227,35.944296377550586,36.539641059754246,7.0,6.0,1012.0,0,4.402654516477167,-114.05202683134625,
124,3.3957252502441406,0.02951812744140625,33.87748772292582,36.516499675904235,4.0,8.0,1015.0,0,3.5221236131817335,-97.20765643828656,
125,3.4224822521209717,0.026757001876831055,37.37339499407451,36.5231988924224,7.0,7.0,1011.0,0,2.817698890545387,-83.03147383116516,
126,3.448547124862671,0.02606487274169922,38.36581171563426,36.53712576278557,3.0,7.0,1008.0,0,2.2541591124363096,-70.74931126917275,
127,3.4766452312469482,0.028098106384277344,35.5895869395513,36.52946779227447,5.0,7.0,1012.0,0,1.8033272899490478,-59.80843268364355,
128,3.504178285598755,0.02753305435180664,36.319980603037706,36.527821808053005,6.0,6.0,1016.0,0,1.4426618319592384,-50.46661863458996,
129,3.5308191776275635,0.026640892028808594,37.53628065151244,36.535430876037665,6.0,5.0,1012.0,0,1.1541294655673908,-42.53938128405786,
130,3.5600452423095703,0.029226064682006836,34.21603321830923,36.516389863535224,5.0,5.0,1007.0,0,0.9233035724539127,-35.61109431252962,
131,3.588613271713257,0.028568029403686523,35.00416447593534,36.504351425267586,4.0,7.0,1015.0,0,0.7386428579631302,-29.781654254479516,
132,3.6158180236816406,0.02720475196838379,36.75828403663293,36.50626196768527,5.0,7.0,1004.0,0,0.5909142863705042,-24.911373162569177,
133,3.6437642574310303,0.02794623374938965,35.7829970566907,36.500714811273006,6.0,7.0,1015.0,0,0.4727314290964034,-20.77488589685343,
134,3.6689820289611816,0.025217771530151367,39.65457450529919,36.52239202652626,6.0,7.0,1007.0,0,0.37818514327712277,-17.36974726452674,
135,3.6952402591705322,0.026258230209350586,38.08329777091751,36.53348376062112,4.0,6.0,1017.0,0,0.3025481146216982,-14.471899308579783,
136,3.720567226409912,0.025326967239379883,39.48360617157273,36.55356608923057,5.0,7.0,1014.0,0,0.24203849169735858,-12.055347071090825,
137,3.748366117477417,0.027798891067504883,35.97265795860957,36.549257918326965,3.0,5.0,1018.0,0,0.19363079335788688,-9.992548371858534,
138,3.7771661281585693,0.028800010681152344,34.72220934468029,36.53532709912266,6.0,5.0,1011.0,0,0.15490463468630952,-8.26297025518879,
139,3.8044161796569824,0.027250051498413086,36.69717835425872,36.53648639790315,6.0,7.0,1014.0,0,0.12392370774904762,-6.837758724430424,
140,3.831679105758667,0.02726292610168457,36.67984853387437,36.53750643930299,5.0,6.0,1013.0,0,0.09913896619923811,-5.652027092743987,
141,3.8610432147979736,0.02936410903930664,34.05517935726929,36.518627779041246,6.0,6.0,1005.0,0,0.0793111729593905,-4.656669485203563,
142,3.8879282474517822,0.026885032653808594,37.19541697704941,36.52330777788128,5.0,6.0,1018.0,0,0.0634489383675124,-3.843336074129387,
143,3.914567232131958,0.02663898468017578,37.53896824544446,36.530219439383366,5.0,6.0,1002.0,0,0.05075915069400993,-3.169941166606918,
144,3.9426963329315186,0.028129100799560547,35.550372090657895,36.52322873492301,6.0,7.0,1016.0,0,0.040607320555207944,-2.608133201052648,
145,3.971097230911255,0.028400897979736328,35.21015429559611,36.51383775529631,5.0,6.0,1010.0,0,0.03248585644416636,-2.1436981617333024,
